  10.000   0.025 159.00  CPD RRRR   PbSO4  Cu Ka X-ray data  22.9.89            
BANK 1  6001  601 CONST 1000 2.5 0 0 STD                                       
     179     147     165     172     150     165     150     158     134     146
     167     159     139     145     165     150     149     156     143     166
     154     131     144     131     140     147     155     148     140     138
     127     146     147     114     129     129     128     136     148     132
     141     135     141     145     131     142     148     151     127     133
     131     125     129     128     134     142     115     138     125     120
     130     118     118     116     119     101     117     142     112     114
     111     122     131     107     121     123     120     126     125     120
     103     121     109     115     122     123     107     126     133     120
     100     130     130     109     116     121      99     107     110     136
     113     102     117     111     105      92     110     116     124     111
      91     106     122     121     119     114     129      95     117     102
     102     117      99     124     107     108      99     113     104      92
      98     107      88      96     104      81     111      78     104     119
     106     105      96      81      95      96     103      91     112     107
      87     112      92      79      92     103      97     102      86      97
     103      93     111      95      96      93      85     104      98     108
      76      92      95      89     105      95      92     105      89      99
     101      97      93      99     100      83      93      96      69     101
      97      85      95      85     111      85      86     100      88      98
      92      93      94      93      81      98      78      79      93      81
      88      73      85     106      88      94      96      91     101      89
      87      95      87      97      81      87      93      90      73      98
      86      80      82      97      80      81      80      81      73     106
      92     101      98     104     106      98     114      97     129     112
     141     167     157     200     215     321     397     434     445     313
     197     155     110     118      86     110      95      93      98      80
      85     106      86     103      92      88      94      79      92     106
      82     104      94      88      97      93      90     120      93     106
      89      92     100      91      99      81      89      79      91      84
      92     107      99      92      87      88      67      81      86      85
     103      85      77     105      93      96      93      85      75     105
      85      89      86      76      86      71     101     100      89      74
     101     103      95     100      87      94      84     102      92      80
      82     105      84      83      93      92     105      94      88      97
      88     110     110      84      89      98      92      86     110      98
      93      94     104      96     105      99     117     111     100     125
      99     107     107      98      84     112      99      93     108     100
      91      98     124      98     121     114      93      87      95      95
     121     102     127     119     118     107     100      95     116     136
      92     127     127     115     124     130     123     137     136     165
     150     173     190     211     212     255     264     305     353     415
     507     623     833    1076    1417    1958    2624    3927    5466    7996
   11062   12925   12506   10327    8178    6771    5910    4886    3432    2110
    1182     802     623     527     435     393     356     333     295     316
     280     248     264     216     202     211     187     168     208     160
     171     149     166     138     168     129     147     134     125     137
     112     128     134     121     138     103     124     115     119     109
     119     116     127     133     121     109     114     113     120     118
     102     110     118     123     116     112     107     121     104     124
     105     128     115     128      99     130     109     125     138     141
     135     125     140     152     177     177     191     195     225     258
     301     337     468     618     837    1082    1507    2283    3235    4791
    6588    8176    8122    6687    5078    3206    1822    1101     712     566
     470     381     302     277     259     259     212     198     189     153
     182     178     175     164     139     176     159     147     172     167
     159     180     168     162     166     147     149     161     173     145
     210     201     257     262     342     451     598     796    1089    1648
    2386    3203    3155    2711    1970    1292     729     450     289     285
     218     211     202     168     165     177     176     197     164     141
     160     160     157     145     165     158     158     197     179     203
     194     216     282     282     364     456     632     854    1213    1815
    2863    4063    4649    4165    3168    2329    1423     738     438     367
     295     246     246     191     179     178     170     182     158     182
     179     184     181     169     171     191     175     216     195     224
     209     251     257     298     297     378     406     499     590     746
     983    1402    2108    3097    4641    7229   10690   13494   13106   10401
    7908    5365    2857    1575     947     697     595     529     450     423
     344     319     309     252     257     252     266     275     257     285
     285     270     280     347     282     362     426     461     637     693
    1051    1425    2158    3198    5190    8004   10350    9724    7797    6126
    4329    2276    1177     756     591     486     352     340     314     270
     256     253     245     206     212     183     205     185     164     197
     167     175     159     152     162     168     151     153     128     167
     147     140     139     153     153     154     145     147     134     160
     137     134     131     157     137     145     151     164     171     172
     165     168     162     193     169     199     186     208     196     182
     246     245     284     340     364     382     519     665     837    1080
    1566    2321    3438    5181    8141   12608   15702   14432   12071    9687
    7137    4123    2094    1334    1013     780     668     467     438     379
     355     263     287     299     247     253     236     223     193     198
     184     204     185     174     201     168     185     175     171     153
     162     135     159     139     147     127     143     140     115     142
     123     156     133     135     128     130     127     120     121     106
     134     114     107     123     111      92     134      87     130      97
     101     113     119     122     114     117      84     105     111     104
     119     119     101     117     122     105     128     116     126     115
     121     116     144     141     128     148     165     172     182     174
     193     230     247     312     325     423     589     755    1130    1670
    2522    3976    5312    5540    4806    3984    3579    2684    1672     977
     645     451     390     317     305     278     234     264     246     263
     239     271     260     299     300     332     411     497     630     918
    1214    1839    2852    4745    6636    7831    7010    5926    5069    4251
    2900    1743    1167     841     646     517     412     354     301     282
     234     204     235     226     207     200     180     180     179     172
     180     157     154     173     198     147     168     157     199     209
     242     257     328     467     631     994    1449    1522    1193     977
     947     796     548     358     251     190     164     159     137     134
     136     126     122     128     108     100     120     106     123     117
     113     108     121     104     104     100     105     107     108     103
     108     123      92     122      97     101      92     114      89      81
     113      76      89      99      89      98      98     104     120     100
      99      89     111      98      96      95      84     115     106     100
      86     110      86      98      97     109     112     105      86     102
      91      98     111      89      95      95      84     114     108      96
      94      94     102      91     106     103      82     121     101     109
     112     104     103     105     112     119     116     119     115     106
     122     116     120     130     107     137     132     131     140     150
     149     161     190     210     234     297     378     583     909    1431
    2164    2620    2390    1970    1772    1685    1327     891     543     352
     292     230     177     182     207     158     143     129     161     133
     119     120     128     118     121     132     135     134     132     135
     156     182     207     266     351     368     312     269     260     249
     219     174     157     146     135     137     136     103     107      99
     133     129     147     130     115     123     109     106     115     136
     119     126     131     135     116     112     123     116     121     136
     147     130     156     138     133     144     163     171     198     191
     196     226     243     294     352     472     630     984    1383    2157
    2946    2947    2469    1988    2056    1767    1317     793     524     362
     282     264     227     186     194     168     177     199     174     169
     183     194     204     189     213     296     350     476     746     894
     816     615     549     596     524     395     306     223     164     206
     198     162     173     163     144     169     160     156     143     187
     146     146     157     177     173     171     197     214     254     333
     505     760    1047    1074     910     689     698     717     570     382
     273     291     231     278     239     272     257     316     315     377
     419     593     709    1116    1749    2604    3739    4133    3642    2835
    2622    2580    2147    1381     844     578     447     351     339     309
     260     268     240     250     233     275     281     285     381     450
     601     801     895     881     726     644     608     589     498     386
     283     277     254     276     249     224     213     196     234     186
     215     191     211     189     204     193     227     221     225     199
     187     193     214     235     241     232     239     254     252     264
     251     260     320     375     379     442     425     492     574     693
     816    1046    1286    1773    2593    4047    6544    9907   12440   12196
    9815    8006    7742    7431    5975    3773    2148    1465    1080     849
     683     579     560     480     481     470     468     450     469     498
     468     528     615     632     765     985    1263    1833    2821    4290
    5647    5682    5372    5802    7664    7744    5866    4103    3552    3442
    2855    1843    1102     771     578     517     456     381     379     335
     326     303     286     287     274     272     282     267     236     255
     238     218     224     209     228     244     234     221     237     224
     217     187     261     216     246     244     282     276     314     333
     385     413     609     855    1397    2190    3180    3151    2427    1819
    1843    2058    1720    1115     716     480     364     297     300     267
     227     215     189     213     174     175     193     183     178     166
     171     171     172     161     151     143     141     139     172     153
     169     141     125     135     142     134     142     138     152     159
     140     143     136     147     144     148     153     112     148     138
     119     121     160     136     164     137     166     142     158     176
     175     183     249     309     389     541     720     682     600     452
     443     453     437     329     289     226     201     182     160     178
     146     181     142     201     182     174     168     174     233     275
     331     464     712     969    1093     984     752     624     651     695
     597     460     284     261     211     196     175     167     165     143
     153     155     137     161     131     138     125     114     154     114
     118     120     130     117     126     132     122     133     122     113
     128     139     126     140     120     122     122     136     116     113
     103     120     129     112     118     140     135     101     128     115
     126     120     119     107     122     124     123     159     132     136
     115     142     132     144     140     131     112     147     129     129
     106     129     127     122     155     130     121     131     173     157
     146     153     168     199     204     212     232     255     319     410
     629    1090    1814    2668    2463    1752    1187    1257    1542    1549
    1066     624     387     314     267     208     211     210     181     170
     154     155     143     171     156     134     142     142     136     139
     139     132     152     123     137     125     132     133     137     148
     121     150     139     127     127     146     147     155     131     144
     148     138     149     154     142     141     181     185     169     181
     203     236     232     335     428     600     826    1143    1282    1262
    1070     962     964     871     886     728     557     468     370     267
     235     203     187     181     188     189     166     167     175     191
     184     181     226     228     258     216     233     250     287     332
     441     506     459     447     383     372     397     408     434     419
     346     392     441     622     912    1096    1359    1605    1949    1937
    1843    2020    1980    1741    1467    1209    1080     998     719     548
     393     314     277     248     204     179     180     168     160     170
     160     184     179     164     149     156     140     161     149     134
     126     143     138     142     163     131     161     131     147     150
     160     128     126     128     152     134     158     135     162     157
     173     156     162     158     164     155     194     195     196     253
     262     350     464     665     937    1141    1055     834     657     648
     638     752     672     543     404     370     386     469     560     465
     360     285     276     355     364     291     228     190     194     195
     180     163     154     156     184     181     152     176     177     160
     178     185     175     206     214     244     255     254     373     514
     623     827     875     884     951    1181    1887    2582    2875    2303
    1613    1270    1312    1510    1599    1288     890     794     643     683
     884    1207    1571    1762    1506    1186     969     975    1015    1048
     938     733     494     392     292     276     254     229     216     203
     194     189     192     181     191     163     175     186     149     175
     142     180     136     151     177     156     159     174     148     147
     141     145     156     144     149     145     127     143     159     129
     161     138     145     165     172     184     217     266     272     313
     288     275     321     323     439     573     743     906     960     812
     566     541     535     554     567     599     473     359     290     254
     189     184     196     210     190     179     148     160     147     122
     148     141     140     142     114     150     151     132     153     140
     118     128     140     136     122     130     135     133     165     160
     163     166     190     264     331     334     297     215     205     212
     268     226     256     199     165     148     159     132     154     139
     121     144     131     136     139     120     129     130     143     127
     150     156     154     153     162     208     247     207     192     179
     148     154     204     186     208     175     141     111     124     132
     127     125     124     147     143     135     136     143     145     143
     148     151     139     142     135     161     143     139     136     158
     164     167     165     181     147     160     195     209     190     226
     195     241     278     302     344     427     563     789     990    1317
    1792    2342    2479    2083    1541    1233    1186    1301    1408    1348
    1086     761     509     405     349     309     273     269     244     252
     286     309     289     316     317     259     228     223     259     237
     212     212     201     184     201     170     165     182     182     183
     199     200     208     190     185     230     275     352     448     647
     956    1241    1280    1063     730     559     576     678     833     919
     838     736     578     449     352     332     306     308     321     300
     245     216     201     182     162     147     163     193     149     171
     166     202     155     141     162     155     166     190     174     189
     211     169     195     197     235     250     286     344     394     561
     722     930    1317    1481    1358    1037     813     746     717     877
     916     896     663     502     396     302     255     280     238     238
     233     267     258     267     346     468     667     897     976     870
     617     478     483     485     541     636     625     465     354     276
     231     232     190     216     192     191     172     178     212     172
     174     183     142     176     174     159     196     194     202     246
     258     272     227     206     220     234     235     252     241     246
     280     326     391     456     640     670     639     521     515     493
     632     854    1153    1468    1384    1196     879     770     660     705
     773     815     766     626     469     409     338     280     267     303
     290     315     308     375     471     637     830    1073    1024     833
     639     528     502     569     667     732     600     516     444     417
     430     431     409     399     319     289     333     368     368     375
     332     257     253     244     250     251     239     260     202     234
     236     222     268     246     261     301     352     434     507     687
     891     929     869     744     766     883    1213    1390    1383    1276
    1228    1172    1129     970     905     839     745     632     628     600
     552     393     307     265     275     215     233     208     186     180
     200     182     178     170     180     177     190     173     203     200
     185     218     207     244     220     243     266     280     324     394
     567     690     853     934     815     877     894     888     744     665
     674     693     634     583     589     572     455     501     497     637
     833    1120     968     776     526     397     372     472     548     682
     632     479     341     304     211     213     199     185     190     194
     183     193     204     201     264     298     373     364     306     270
     271     259     298     371     433     565     625     581     460     365
     291     270     311     317     411     435     426     481     415     358
     268     245     239     204     246     236     272     241     203     182
     189     163     165     161     145     149     163     166     138     141
     158     145     131     135     147     133     140     144     155     157
     196     193     175     172     174     148     164     177     183     250
     310     439     401     356     276     178     216     209     222     263
     281     270     217     181     183     174     171     151     142     130
     147     146     148     124     129     128     135     143     135     145
     134     131     154     135     139     155     143     151     154     160
     141     160     155     171     166     159     187     205     212     230
     313     346     402     511     535     696     717     624     520     421
     399     344     380     468     482     453     373     267     229     209
     176     193     210     179     173     207     225     265     315     289
     229     197     204     221     249     258     290     401     434     421
     368     358     396     462     547     580     497     442     397     313
     316     296     341     355     373     333     274     262     290     329
     333     356     280     237     214     238     243     204     239     255
     249     226     191     222     193     236     264     308     340     330
     282     229     235     204     203     252     249     232     222     217
     226     222     238     265     341     339     338     302     275     242
     218     232     297     360     399     423     365     273     254     262
     216     316     339     402     509     598     700     742     619     470
     398     379     352     351     379     443     466     438     357     289
     258     233     216     241     235     277     309     358     356     323
     273     243     224     243     250     220     267     291     282     252
     255     328     357     411     375     323     267     240     208     209
     236     248     261     256     244     203     173     170     174     168
     167     181     159     195     168     180     186     175     191     213
     274     266     323     421     552     799    1129    1277    1123     820
     610     504     408     478     543     708     817     736     641     568
     413     433     373     314     321     244     262     251     232     241
     216     240     212     196     173     187     175     173     152     163
     143     135     122     139     128     134     140     117     150     134
     152     127     170     158     155     173     161     136     128     177
     165     140     154     143     168     189     130     160     151     182
     221     238     260     315     327     311     246     211     204     196
     211     191     234     225     255     200     186     186     162     140
     153     147     143     153     154     133     145     148     165     155
     155     147     176     149     165     136     163     163     198     215
     249     304     377     414     339     322     284     301     311     380
     550     624     660     617     461     363     284     266     268     289
     340     375     363     327     259     216     172     180     208     177
     157     189     192     222     222     188     184     164     173     182
     153     158     158     183     190     178     169     145     170     138
     169     133     134     122     126     153     112     125     127     147
     125     125     142     143     138     145     166     165     156     154
     169     130     173     155     178     211     247     289     310     276
     303     376     468     665     803     829     683     570     507     383
     335     352     412     522     575     652     681     634     466     368
     301     214     226     205     239     226     271     279     280     247
     223     201     199     198     206     191     154     174     144     155
     161     172     178     192     155     171     155     160     138     156
     178     163     191     200     208     186     167     183     157     148
     163     174     187     182     189     190     190     199     240     247
     334     391     512     618     663     593     456     395     343     288
     292     310     392     389     437     361     351     262     250     233
     197     195     171     174     171     159     158     120     128     140
     148     156     133     156     144     163     158     158     154     165
     196     206     256     278     255     253     223     190     196     176
     171     212     204     252     224     192     180     172     166     159
     155     148     167     137     178     161     180     156     169     178
     174     181     172     238     209     240     343     384     500     673
     704     763     656     551     406     354     352     301     357     414
     440     502     459     425     378     418     427     467     441     400
     327     278     259     240     213     206     241     263     287     291
     245     243     198     195     195     164     178     161     161     183
     177     177     177     192     219     260     310     337     312     290
     275     243     192     200     212     205     180     219     274     271
     200     205     195     179     171     171     147     147     167     159
     157     145     164     142     143     164     157     153     145     168
     159     169     137     182     196     218     216     223     269     295
     288     280     281     187     264     216     220     242     264     272
     326     362     407     468     432     443     383     393     367     415
     471     595     626     583     491     456     411     322     328     289
     271     302     377     369     373     347     296     292     257     269
     241     218     212     239     254     295     314     356     301     277
     252     251     186     197     162     192     231     223     207     238
     196     196     176     171     178     146     169     161     149     173
     156     143     154     152     139     184     185     161     159     152
     159     176     164     168     193     195     187     237     228     265
     291     347     409     454     552     524     552     502     483     433
     382     363     322     328     389     469     485     438     491     415
     377     375     322     288     280     263     275     245     243     239
     247     216     204     210     196     220     209     212     226     201
     225     228     210     244     298     405     445     534     579     538
     495     466     410     389     387     429     460     573     607     740
     853     781     733     593     499     398     368     334     370     358
     391     376     394     414     383     300     294     275     246     259
     235     239     243     277     363     383     434     436     378     373
     386     438     464     491     539     539     523     499     478     472
     383     345     354     352     383     370     410     453     416     396
     392     319     335     407     461     587     741     875     863     754
     619     485     429     336     321     296     316     385     474     539
     571     493     420     345     272     242     219     229     203     220
     211     190     171     195     176     218     208     212     230     265
     314     278     306     262     281     209     235     222     223     246
     268     316     307     316     273     247     229     201     198     173
     202     173     212     185     197     193     193     194     169     169
     157     167     175     140     174     146     171     142     152     171
     150     142     161     150     163     154     149     157     192     185
     184     205     231     238     263     324     365     388     380     421
     418     408     385     374     346     329     297     319     322     328
     298     290     304     311     312     319     292     241     239     202
     206     202     227     236     307     309     385     341     324     290
     208     241     201     202     181     217     264     229     326     303
     345     304     296     241     242     210     187     206     194     221
     216     245     242     251     258     232     215     189     192     163
     158     162     174     182     169     151     187     179     167     169
     146     149     146     158     142     164     142     153     147     163
     160     163     127     150     159     140     136     159     171     178
     159     162     193     156     176     161     155     146     179     208
     186     194     252     230     219     182     179     174     147     189
     166     142     144     177     178     215     182     160     196     200
     159     163     150     175     144     132     160     169     138     171
     129     167     172     135     170     172     169     199     221     233
     283     291     299     257     239     226     185     195     194     175
     192     182     189     210     252     217     230     223     192     205
     179     185     155     193     190     214     215     230     223     212
     233     221     242     216     261     265     370     406     501     447
     488     473     365     279     283     285     282     239     267     263
     309     349     345     322     338     308     238     221     215     197
     205     208     222     206     204     230     240     284     313     331
     344     297     275     267     216     230     194     195     234     196
     198     240     255     287     314     318     255     232     213     186
     193     156     168     155     154     187     181     194     183     206
     191     179     174     158     176     183     184     188     222     211
     242     267     330     363     390     397     332     288     273     199
     218     198     206     228     206     216     256     259     301     265
     240     206     224     183     160     190     158     161     161     143
     144     177     175     142     129     140     166     156     126     156
     144     146     136     145     160     147     142     150     168     164
     168     195     207     229     260     263     294     291     279     245
     211     240     218     197     226     253     249     289     329     377
     412     419     371     310     258     236     243     235     224     241
     236     239     302     286     295     329     390     376     405     380
     376     363     361     296     313     279     295     248     253     273
     273     275     305     282     295     295     304     318     331     336
     336     371     349     315     280     286     238     265     226     238
     222     224     254     303     311     297     319     302     295     299
     325     347     294     264     265     239     227     226     250     203
     229     202     234     220     206     230     228     259     221     276
     276     271     278     298     341     366     384     388     410     433
     388     382     298     327     266     250     252     252     262     270
     257     249     251     336     305     284     293     236     224     207
     200     174     177     180     163     150     181     174     141     156
     143     166     148     174     153     160     159     160     155     141
     148     157     157     161     171     164     169     170     167     189
     220     252     328     298     286     290     266     220     171     193
     194     170     235     195     207     227     261     320     343     339
     411     416     350     350     288     343     300     286     283     249
     258     232     229     233     215     250     258     250     251     245
     233     220     257     219     207     208     191     187     198     176
     184     190     192     159     176     166     196     172     180     208
     219     202     177     175     170     167     175     153     145     178
     168     153     159     179     196     175     174     168     180     139
     157     143     156     157     151     155     158     155     141     152
     145     158     153     149     153     150     144     150     143     172
     141     166     170     162     206     182     172     183     175     178
     179     157     163     182     184     177     163     172     185     159
     185     176     169     161     173     190     193     150     175     151
     176     166     171     187     180     216     212     269     301     313
     319     328     299     252     252     228     200     209     202     225
     199     251     236     263     299     302     338     248     259     262
     213     211     206     210     168     191     159     183     202     211
     205     206     205     223     200     184     189     186     185     205
     197     210     206     202     174     175     190     165     173     179
     192     168     168     181     170     200     198     219     211     238
     222     205     221     204     219     196     210     196     234     212
     191     250     230     226     277     263     296     319     338     385
     408     381     356     290     284     268     222     245     214     211
     204     227     254     236     290     305     290     337     276     281
     238     243     231     205     205     193     180     171     185     191
     191     190     179     169     175     199     179     189     210     191
     206     212     210     235     205     182     185     177     171     153
     154     152     170     155     156     153     171     188     181     180
     201     183     191     184     187     163     161     165     160     185
     198     164     176     182     172     172     186     189     181     231
     209     211     227     226     193     216     211     211     193     175
     192     209     196     195     230     231     239     311     285     263
     289     262     214     212     218     186     191     199     183     190
     168     194     191     195     207     218     222     241     242     219
     189     202     202     190     225     204     223     262     258     317
     312     304     299     278     265     221     205     225     211     203
     192     201     197     227     184     205     216     256     253     288
     249     280     219     217     249     229     198     193     178     205
     210     185     179     213     233     225     232     264     271     285
     273     342     326     401     358     432     331     361     330     283
     282     263     245     232     219     251     241     241     265     237
     251     266     291     301     300     280     332     285     276     261
     262     264     280     291     292     284     266     240     219     232
     218     192     181     184     219     187     174     184     204     197
     217     215     213     212     218     210     224     183     178     205
     184     185     180     197     154     171     181     155     145     184
     180     173     168     190     169     161     174     158     167     182
     165     183     168     159     161     155     189     186     150     168
     186     194     155     171     151     165     175     156     163     164
     166     185     163     202     186     183     183     155     199     176
     188     177     165     198     170     186     188     193     190     207
     234     205     212     216     213     266     257     269     300     330
     339     357     382     326     325     282     284     305     353     293
     354     327     397     378     367     341     307     311     274     313
     351     347     326     307     293     260     283     272     272     302
     307     313     332     337     327     331     343     329     371     392
     418     493     471     481     485     486     422     425     387     379
     330     338     327     321     327     386     375     412     398     371
     398     377     382     419     397     373     325     333     311     301
     293     291     268     279     289     278     266     268     284     258
     251     258     247     251     211     209     220     218     191     186
     214     213     216     227     196     202     213     186     198     224
     177     197     160     191     209     217     216     215     200     207
     202     234     218     252     249     281     270     287     318     319
     370     397     434     494     424     485     464     454     461     371
     326     309     280     332     297     277     293     303     342     293
     322     350     360     343     387     437     442     460     486     451
     433     459     369     415     340     328     323     291     265     305
     279     298     320     299     306     340     314     329     324     367
     378     335     338     293     299     293     263     285     277     283
     326     291     311     315     351     367     353     387     404     365
     354     382     318     310     342     355     334     382     359     322
     317     322     315     322     260     275     282     290     318     296
     276     281     309     281     305     298     276     252     303     282
     308     302     293     288     268     300     319     297     302     304
     346     392     454     519     565     590     593     601     563     482
     500     403     417     386     328     293     321     300     313     294
     318     294     329     329     364     360     385     412     426     405
     418     417     358     384     387     312     316     304     295     296
     294     273     325     330     345     300     370     350     381     297
     316     300     270     271     292     249     263     269     273     252
     250     225     241     245     268     276     264     282     294     314
     303     269     295     283     293     286     264     255     259     252
     270     255     304     293     311     285     332     321     350     358
     431     433     427     380     413     422     348     388     355     370
     353     322     348     325     320     369     351     400     379     399
     406     396     397     415     439     438     437     478     495     511
     450     497     498     433     477     484     430     431     454     399
     382     384     351     334     347     336     330     306     330     311
     298     301     344     335     334     303     326     359     397     356
     347     310     347     332     312     335     334     316     309     294
     334     342     332     279     267     257     292     288     273     245
     269     248     228     250     249     230     238     217     238     212
     246     246     239     262     265     264     240     250     246     226
     227     235     226     256     190     215     236     223     227     203
     206     190     232     230     201     219     203     216     213     208
     224     210     202     212     205     236     220     194     199     201
     216     237     212     225     203     241     232     260     253     257
     282     291     283     325     333     335     293     315     297     310
     285     285     276     258     251     269     228     215     259     235
     257     241     289     229     267     270     284     265     274     275
     279     277     269     267     263     299     262     263     268     235
     232     261     236     224     251     249     247     217     238     231
     251     261     251     308     300     333     311     283     279     289
     281     273     244     299     263     257     209     284     256     270
     280     276     282     293     282     285     309     299     295     307
     253     258     255     297     296     248     286     288     259     276
     256     257     268     246     273     271     306     287     286     303
     283     335     330     366     380     334     362     408     432     479
     440     484     478     479     513     472     445     466     437     414
     396     374     314     326     326     323     316     354     315     351
     329     370     366     415     444     423     414     412     463     464
     424     427     411     394     383     394     330     360     359     303
     294     289     271     288     264     284     262     274     278     293
     289     309     292     313     286     291     303     279     298     301
     278     261     314     299     316     353     319     339     335     341
     306     303     298     290     317     318     296     336     295     284
     241     276     245     247     263     270     261     239     247     250
     209     238     247     257     255     273     272     319     274     307
     253     284     254     274     278     237     257     249     261     242
     256     255     236     234     250     233     250     231     252     244
     256     226     267     246     257     255     278     292     308     274
     375     361     344     361     347     352     322     337     267     268
     286     279     276     252     242     277     271     275     272     295
     281     338     320     350     381     404     451     441     452     417
     450     436     437     440     474     453     457     438     387     386
     366     341     337     308     329     283     296     289     297     240
     268     282     297     291     281     305     336     324     307     332
     328     309     315     330     291     290     344     314     324     327
     259     268     305     304     300     285     292     289     294     278
     261     297     252     280     245     266     283     238     266     262
     249     255     240     239     221     251     212     233     238     249
     256     216     262     249     248     263     281     234     290     269
     284     233     286     275     263     245     259     276     229     261
     273     272     231     212     233     256     241     228     234     238
     216     207     221     233     238     217     238     251     268     259
     230     276     257     260     255     244     258     279     291     290
     295     289     273     306     307     264     289     270     234     252
     243     244     251     235     234     246     239     257     218     234
     230     253     248     257     248     255     261     275     288     301
     283     308     268     300     305     254     251     256     280     290
     267     278     302     264     263     289     231     271     289     268
     310     278     280     262     234     275     288     265     302     278
     273     279     303     318     317     312     303     312     311     308
     304     284     281     287     262     273     284     261     241     238
     276     276     274     262     279     274     238     278     273     274
     260     245     293     307     304     266     287     292     295     295
     305     300     281     287     299     268     292     267     236     248
     272     274     237     251     245     285     252     272     258     269
     268     299     240     263     260     315     315     295     279     295
     333     322     338     383     339     311     323     295     275     295
     289     294     287     275     249     232     269     258     268     290
     253     266     234     233     223     231     252     275     267     251
     284     281     254     265     309     269     296     290     301     297
     300     345     298     347     345     374     366     387     392     438
     465     470     443     511     473     474     455     473     452     460
     440     386     385     402     418     382     348     344     360     366
     351     322     327     318     352     341     308     357     325     367
     383     381     376     381     434     410     412     411     393     427
     429     441     407     412     456     389     386     382     368     352
     367     366     364     366     352     312     345     336     284     310
     289     318     287     303     306     320     330     334     345     367
     407     379     410     396     429     425     449     416     394     390
     394     404     356     350     378     369     362     311     297     307
     293     291     338     300     290     317     312     270     313     278
     321     327     332     337     328     301     322     334     330     315
     311     302     338     321     317     331     335     345     317     306
     309     336     309     299     319     310     287     281     268     260
     279     279     289     265     261     264     260     271     265     270
     280     304     283     289     294     325     269     282     293     275
     283     281     283     277     284     275     277     278     273     284
     267     270     287     316     261     283     294     275     324     306
     302     276     392     339     309     315     322     359     308     335
     315     318     319     328     315     303     296     300     304     283
     292     266     279     295     258     289     272     251     305     263
     261     299     291     276     294     259     254     297     287     257
     284     255     260     259     300     264     300     287     298     283
     279     271     291     304     299     272     316     298     322     306
     268     257     279     262     269     291     258     269     295     293
     268     264     272     272     288     270     267     277     310     292
     276     290     319     322     316     343     345     379     383     389
     437     371     405     427     442     424     438     396     384     381
     329     322     319     274     318     304     316     324     275     319
     259     272     262     270     263     266     242     265     251     275
     277     260     256     240     278     252     286     295     268     301
     296     268     299     298     305     293     327     343     362     367
     358     324     322     330     356     353     351     324     359     339
     289     330     295     293     293     300     296     319     302     276
     293     271     283     256     258     269     272     213     257     274
     242     245     252     212     261     281     259     253     280     255
     229     241     242     248     259     257     256     253     281     292
     254     273     278     277     264     219     271     279     246     268
     282     272     270     221     262     286     267     254     267     259
     267     276     269     251     256     228     248     243     254     254
     245     242     250     264     274     255     281     229     263     250
     241     259     268     285     241     255     268     257     263     266
     298     281     271     261     280     296     283     341     280     304
     282     258     262     279     285     319     293     322     316     348
     341     339     321     373     376     366     402     391     405     407
     422     395     434     419     426     385     390     375     357     343
     359     344     285     324     317     345     303     315     288     301
     281     327     316     260     299     302     249     293     271     296
     258     283     268     271     305     268     234     286     278     274
     274     253     238     291     274     300     282     303     285     323
     340     283     355     288     335     350     313     303     338     326
     359     372     325     325     352     345     348     330     336     310
     343     321     329     325     329     330     311     316     327     320
     306     348     345     330     325     371     381     421     388     403
     413     417     391     385     376     382     420     374     352     328
     368       0       0       0       0       0       0       0       0       0
