10.0    0.05    155.9   CPD RRRR   PbSO4 1.909A neutron data   8.8.89           
BANK 1 2919 292 CONST 1000 5 0 0                                                
 1   220 1   214 1   219 1   224 1   198 1   229 1   224 1   216 1   202 1   229
 1   202 1   215 1   215 1   196 1   235 1   207 1   205 1   238 1   202 1   213
 1   226 1   198 1   222 1   186 1   216 1   218 1   225 1   200 1   196 1   224
 1   199 1   204 1   189 1   211 1   190 1   184 1   204 1   204 1   219 1   207
 1   227 2   211 2   193 2   206 2   208 2   191 2   194 2   185 2   200 2   203
 2   197 2   203 2   200 2   200 2   205 2   208 2   205 2   201 2   221 2   218
 2   218 2   216 2   202 2   206 2   197 2   210 2   199 2   219 2   192 2   211
 2   199 2   196 2   195 2   203 2   202 2   200 2   199 2   191 2   204 2   191
 2   200 2   199 2   197 2   202 2   210 2   202 2   198 2   191 2   194 2   198
 2   194 2   193 2   212 2   214 2   197 2   195 2   205 2   209 2   203 2   197
 2   191 2   192 2   215 2   194 2   189 2   188 2   202 2   201 2   198 2   208
 2   197 2   187 2   187 2   190 2   197 2   200 2   193 2   180 2   194 2   206
 2   195 2   193 2   205 2   194 2   196 2   194 2   199 2   207 2   188 2   203
 2   188 2   180 2   198 2   200 2   201 2   210 2   206 2   189 2   194 2   187
 2   195 2   201 2   197 2   206 2   208 2   199 2   192 2   193 2   204 2   201
 2   200 2   177 2   193 2   199 2   201 2   194 2   184 2   192 2   199 2   190
 2   183 3   189 3   196 3   196 3   198 3   210 3   212 3   219 3   198 3   195
 3   198 3   191 3   193 3   197 3   194 3   187 3   209 3   187 3   198 3   206
 3   197 3   191 3   200 3   207 3   205 3   198 3   196 3   209 3   211 3   203
 3   200 3   192 3   208 3   213 3   221 3   216 3   226 3   228 3   228 3   215
 3   224 3   226 3   213 3   239 3   250 3   247 3   240 3   231 3   236 3   223
 3   231 3   226 3   214 3   208 3   214 3   196 3   204 3   199 3   186 3   192
 3   199 3   200 3   184 3   184 3   189 3   182 3   184 3   185 3   195 3   190
 3   194 3   185 3   183 3   193 3   194 3   193 3   188 3   191 3   189 3   188
 3   201 3   195 3   205 3   200 3   200 3   192 3   197 3   204 3   207 3   192
 3   201 3   190 3   195 3   194 3   182 3   189 3   196 3   196 3   200 3   190
 3   183 3   199 3   187 3   196 3   191 3   191 3   195 3   194 3   192 3   182
 3   188 3   203 3   187 3   192 3   206 3   201 3   184 3   192 3   205 3   196
 3   193 4   194 4   195 4   194 4   201 4   193 4   176 4   187 4   188 4   196
 4   192 4   185 4   195 4   198 4   205 4   200 4   208 4   195 4   187 4   193
 4   197 4   202 4   193 4   196 4   202 4   201 4   197 4   204 4   208 4   206
 4   212 4   207 4   207 4   212 4   216 4   218 4   221 4   218 4   207 4   203
 4   204 4   202 4   206 4   202 4   202 4   181 4   193 4   205 4   198 4   196
 4   197 4   195 4   201 4   205 4   195 4   196 4   196 4   205 4   198 4   200
 4   199 4   180 4   187 4   193 4   197 4   197 4   196 4   194 4   197 4   204
 4   201 4   187 4   191 4   205 4   200 4   198 4   200 4   204 4   196 4   195
 4   194 4   200 4   198 4   201 4   208 4   205 4   211 4   211 4   220 4   220
 4   212 4   208 4   214 4   226 4   235 4   233 4   237 4   242 4   242 4   245
 4   239 4   226 4   232 4   238 4   226 4   218 4   218 4   214 4   205 4   200
 4   193 4   195 4   196 4   195 4   207 4   215 4   207 4   218 4   218 4   220
 4   220 5   229 5   236 5   254 5   264 5   280 5   289 5   289 5   303 5   302
 5   297 5   281 5   278 5   280 5   265 5   258 5   243 5   240 5   232 5   231
 5   233 5   246 5   248 5   249 5   256 5   272 5   289 5   311 5   340 5   363
 5   393 5   440 5   474 5   482 5   492 5   508 5   494 5   475 5   439 5   413
 5   368 5   331 5   299 5   286 5   262 5   241 5   238 5   252 5   267 5   276
 5   278 5   300 5   325 5   336 5   359 5   405 5   458 5   501 5   564 5   640
 5   719 5   783 5   837 5   851 5   866 5   828 5   763 5   697 5   634 5   541
 5   465 5   391 5   351 5   301 5   284 5   260 5   248 5   257 5   242 5   246
 5   263 5   271 5   281 5   302 5   309 5   335 5   342 5   345 5   356 5   351
 5   341 5   334 5   321 5   286 5   268 5   256 5   238 5   229 5   218 5   223
 5   216 5   203 5   203 5   194 5   205 5   196 5   193 5   206 5   201 5   201
 5   201 5   200 5   194 5   196 5   203 5   195 5   196 5   211 5   216 5   207
 5   215 5   221 6   237 6   248 6   261 6   279 6   319 6   337 6   364 6   423
 6   489 6   557 6   630 6   729 6   822 6   943 6  1059 6  1196 6  1235 6  1220
 6  1209 6  1128 6  1001 6   864 6   729 6   601 6   496 6   418 6   355 6   313
 6   263 6   246 6   226 6   214 6   222 6   222 6   211 6   211 6   202 6   198
 6   192 6   193 6   196 6   201 6   203 6   203 6   201 6   198 6   196 6   206
 6   210 6   197 6   204 6   200 6   205 6   196 6   195 6   205 6   204 6   200
 6   203 6   208 6   207 6   202 6   203 6   198 6   204 6   210 6   216 6   210
 6   229 6   239 6   247 6   278 6   302 6   324 6   371 6   420 6   465 6   538
 6   630 6   739 6   851 6   976 6  1076 6  1161 6  1222 6  1227 6  1187 6  1096
 6   964 6   833 6   708 6   587 6   512 6   436 6   391 6   384 6   370 6   391
 6   419 6   448 6   490 6   567 6   626 6   687 6   735 6   780 6   782 6   745
 6   721 6   662 6   595 6   527 6   446 6   393 6   335 6   301 6   276 7   251
 7   242 7   229 7   209 7   215 7   218 7   214 7   209 7   208 7   212 7   210
 7   209 7   210 7   205 7   209 7   211 7   211 7   216 7   205 7   204 7   202
 7   201 7   200 7   207 7   205 7   202 7   209 7   202 7   203 7   206 7   206
 7   200 7   194 7   199 7   204 7   205 7   210 7   207 7   205 7   210 7   204
 7   203 7   202 7   205 7   201 7   201 7   207 7   197 7   198 7   203 7   209
 7   209 7   208 7   204 7   209 7   199 7   204 7   206 7   201 7   205 7   202
 7   204 7   198 7   198 7   213 7   210 7   212 7   214 7   215 7   217 7   210
 7   214 7   215 7   215 7   215 7   217 7   222 7   231 7   247 7   252 7   273
 7   304 7   332 7   366 7   408 7   463 7   532 7   619 7   734 7   828 7   944
 7  1003 7  1055 7  1070 7  1018 7   944 7   833 7   725 7   633 7   507 7   445
 7   379 7   347 7   316 7   282 7   267 7   269 7   281 7   288 7   300 7   327
 7   346 7   380 7   400 7   430 7   453 7   459 7   451 7   427 7   402 7   375
 7   344 7   309 7   277 8   265 8   246 8   246 8   230 8   223 8   227 8   225
 8   217 8   217 8   223 8   223 8   220 8   223 8   226 8   248 8   258 8   274
 8   297 8   324 8   355 8   393 8   458 8   528 8   589 8   688 8   781 8   840
 8   876 8   874 8   832 8   765 8   682 8   613 8   524 8   455 8   408 8   384
 8   366 8   375 8   392 8   426 8   470 8   519 8   588 8   639 8   681 8   704
 8   693 8   650 8   600 8   540 8   478 8   412 8   376 8   345 8   330 8   337
 8   350 8   383 8   426 8   493 8   571 8   676 8   803 8   920 8  1071 8  1183
 8  1247 8  1255 8  1251 8  1183 8  1068 8   945 8   861 8   811 8   813 8   872
 8   969 8  1120 8  1309 8  1527 8  1706 8  1856 8  1888 8  1837 8  1713 8  1500
 8  1289 8  1103 8   904 8   749 8   627 8   568 8   551 8   560 8   586 8   634
 8   691 8   751 8   799 8   792 8   820 8   774 8   736 8   680 8   627 8   562
 8   514 8   459 8   424 8   362 8   333 8   318 8   300 8   287 8   265 8   266
 8   262 9   263 9   255 9   270 9   278 9   289 9   317 9   343 9   400 9   468
 9   561 9   695 9   873 9  1100 9  1372 9  1660 9  1954 9  2224 9  2400 9  2459
 9  2435 9  2245 9  1986 9  1671 9  1358 9  1086 9   868 9   682 9   578 9   521
 9   512 9   537 9   600 9   704 9   855 9  1032 9  1232 9  1466 9  1693 9  1866
 9  1966 9  2024 9  2016 9  1846 9  1667 9  1429 9  1179 9   950 9   763 9   599
 9   484 9   404 9   351 9   304 9   284 9   273 9   259 9   251 9   251 9   252
 9   245 9   259 9   250 9   253 9   256 9   264 9   285 9   301 9   346 9   390
 9   458 9   528 9   624 9   733 9   829 9   916 9   988 9   994 9   929 9   843
 9   742 9   638 9   527 9   434 9   377 9   320 9   282 9   273 9   256 9   243
 9   240 9   240 9   230 9   220 9   230 9   227 9   224 9   219 9   227 9   227
 9   224 9   222 9   223 9   217 9   213 9   216 9   219 9   219 9   218 9   220
 9   220 9   220 9   223 9   233 9   237 9   249 9   258 9   261 9   283 9   304
10   32410   34710   35310   35910   36310   35210   34110   33010   30810   291
10   27110   25410   24510   24510   23910   22810   21710   21710   21810   223
10   20710   21810   22210   21510   21010   21610   21310   21210   21510   212
10   21410   21110   21410   21710   20510   20710   21310   20810   21110   205
10   21410   21310   21210   21210   21310   20710   20310   21110   21110   214
10   21410   20710   20310   21210   21210   21410   21310   20210   21010   211
10   21110   21410   22110   21710   21210   21410   21910   22310   22510   227
10   23510   24010   24310   25210   24910   24910   25510   26210   28210   308
10   35110   39810   47010   52510   59610   64610   68110   66510   61510   563
10   48410   42110   36410   31710   28910   26110   24510   23310   22810   219
10   21910   21710   21610   22110   21510   21510   21010   21210   21210   204
10   20910   20610   21610   20710   21410   20710   20910   21810   21510   222
10   22610   23010   23910   24910   26310   27510   29210   31710   32310   341
10   35010   33010   32010   30710   28410   27510   26510   26910   27510   292
10   31110   33810   38710   41310   46310   51010   53410   55910   53910   533
10   50010   47110   45510   41010   37310   34210   30710   28810   28610   281
10   29210   29110   31210   32610   33610   34610   34110   32710   30510   277
10   26710   24910   22910   22110   22010   21710   21110   20410   20310   220
10   21710   21710   21410   20510   20510   21110   20610   20810   20110   208
10   21410   21210   20610   21610   21910   21510   21710   21110   21410   215
10   22410   21710   21510   21810   21810   22810   22710   22810   22510   219
10   21610   21910   21810   21410   21210   22110   21410   20810   20410   209
10   20910   20810   21210   21310   21810   21210   20510   20710   20410   206
10   21110   21610   21410   21010   21910   22210   22410   23110   22710   237
10   23510   23810   24510   24210   24810   24610   24310   25310   25910   278
10   28110   29710   31010   32410   32210   31110   29510   28110   25910   250
10   23910   23310   22710   22610   22310   21110   20910   21710   21410   213
10   21710   22010   21010   20910   21510   21810   21510   21710   22110   217
10   21910   22010   22810   22910   23010   23410   25110   26110   28810   313
10   36210   42410   52410   64610   78110   92010  102410  112010  118710  1187
10  116610  111410  104410   99110   92710   82310   71710   61910   52010   421
10   35310   30810   27310   25610   24510   23410   23010   22410   23210   226
10   22210   22210   22710   22510   22610   22710   22910   23510   23310   243
10   23810   23710   23610   23210   23110   22710   22510   22010   21810   215
10   21910   22410   22510   22210   23110   24310   25010   26910   28610   310
10   32510   33210   33710   32910   30310   27810   26810   25210   23610   228
10   21910   22510   22210   21410   22810   22110   21710   22110   22210   226
10   23710   24610   25510   26910   28410   30210   31310   32710   32110   333
10   33110   33210   35810   40210   46010   55710   66010   76910   85910   934
10   95510   92110   82410   69410   57810   47410   40210   34410   30610   300
10   29210   29210   30210   30410   30610   30510   30310   29910   27810   259
10   25710   24510   23710   24010   23310   23210   23510   24110   25710   274
10   29210   30910   33310   36010   38110   38710   38710   38610   38210   368
10   36310   35210   33710   32110   29710   28110   26510   25510   25110   237
10   23810   23710   22810   24010   23410   22610   22910   22810   23310   243
10   24110   25710   27910   30510   34510   41010   45510   54510   62210   673
10   72510   71710   66110   59210   51810   44310   37110   33610   29010   265
10   25210   25010   24410   24210   24110   24310   24810   25310   25210   264
10   26610   28210   29110   31310   34610   37410   41510   43010   43310   430
10   40610   38410   34910   31810   30710   29810   29610   30410   31310   328
10   34610   34110   33510   32410   33610   34110   34110   37010   41410   442
10   49010   52010   53210   54810   56110   56710   58510   58410   55810   527
10   48110   42410   37010   33310   31210   30110   30710   31410   34010   379
10   42710   46710   53510   58410   60210   58010   53210   48110   42610   379
10   32910   30310   28810   27110   26910   26710   26310   26710   26010   260
10   26310   26310   27010   27810   29310   31810   36410   42410   51210   643
10   81710   98210  116310  128910  137310  139310  134810  124410  115710  1077
10  102010   96510   90710   85810   77110   64710   55510   46810   40510   348
10   31610   29110   27710   27810   27010   26210   26810   27010   27910   287
10   30010   31910   34710   37810   42010   46910   53610   64510   77310   925
10  111510  125410  136710  140010  132710  118810  103810   87910   73810   644
10   59410   60110   64310   69710   78610   84210   84710   79110   70210   592
10   50810   41810   36210   32810   29910   27910   27010   25710   25310   258
10   25710   24910   24510   25710   26010   28410   29610   32210   34310   382
10   40510   41110   41610   40610   37210   35310   33010   31710   31310   312
10   30910   30310   28810   27610   26410   24610   24910   24110   25110   243
10   24610   24610   24910   24410   25210   25210   25810   26510   26310   284
10   29910   32010   34410   36310   37210   35810   35110   35410   33010   322
10   33410   33910   34510   35710   36010   35810   37210   42510   51110   626
10   77010   94610  111810  120510  122710  115710  104110   87310   71510   562
10   44610   37710   33210   29710   28210   27610   26410   26110   26610   261
10   25310   25810   26210   26010   28310   30710   34410   40210   45310   529
10   60410   66110   67210   62910   58810   51010   44010   37710   33010   301
10   28010   26910   25810   25210   25110   25210   25610   25310   25310   253
10   26210   26510   28410   29110   32310   37410   43110   51110   60210   678
10   74310   75610   71710   65710   58110   49010   41810   36410   33510   306
10   29010   28610   28310   28310   27410   26210   26610   26110   26110   264
10   26910   27810   28810   30610   31910   33010   34310   34110   32510   318
10   29810   29910   28810   30910   34410   38210   42210   47010   51210   514
10   51510   48810   44010   39610   36610   33210   31110   30510   30010   293
10   28610   30610   31310   31710   32710   34310   33010   32010   30710   298
10   28210   27410   26610   27410   27110   27410   29010   30210   32110   350
10   36710   38610   39410   37010   35610   33210   31010   28810   27910   281
10   27410   28410   28010   27010   27810   26910   27310   26810   26710   265
 9   257 9   258 9   267 9   267 9   277 9   287 9   302 9   332 9   360 9   411
 9   457 9   524 9   608 9   699 9   861 9  1096 9  1377 9  1685 9  1901 9  2069
 9  2016 9  1800 9  1500 9  1181 9   937 9   728 9   629 9   576 9   556 9   535
 9   519 9   486 9   465 9   429 9   385 9   361 9   342 9   312 9   293 9   279
 9   277 9   265 9   257 9   256 9   250 9   260 9   261 9   258 9   263 9   268
 9   284 9   306 9   325 9   337 9   337 9   344 9   340 9   337 9   328 9   321
 9   306 9   295 9   289 9   281 9   267 9   266 9   270 9   263 9   256 9   266
 9   264 9   259 9   261 9   261 9   258 9   253 9   248 9   244 9   249 9   251
 9   245 9   245 9   247 9   247 9   254 9   259 9   250 9   251 9   258 9   252
 9   255 9   259 9   256 9   264 9   268 9   281 9   303 9   331 9   371 9   420
 9   484 9   532 9   576 9   582 9   563 9   527 9   490 9   465 9   467 9   449
 9   416 9   393 9   366 9   331 9   316 9   297 9   294 9   292 9   286 9   295
 8   306 8   315 8   334 8   373 8   406 8   447 8   499 8   507 8   506 8   488
 8   432 8   391 8   342 8   315 8   292 8   275 8   274 8   259 8   250 8   258
 8   252 8   255 8   254 8   253 8   254 8   252 8   257 8   250 8   255 8   251
 8   254 8   260 8   249 8   253 8   254 8   259 8   268 8   270 8   284 8   305
 8   322 8   364 8   417 8   470 8   573 8   678 8   771 8   847 8   854 8   794
 8   720 8   611 8   520 8   463 8   412 8   399 8   416 8   428 8   432 8   420
 8   402 8   364 8   348 8   334 8   321 8   330 8   342 8   380 8   385 8   420
 8   441 8   465 8   444 8   406 8   383 8   345 8   332 8   321 8   308 8   292
 8   303 8   314 8   333 8   379 8   438 8   505 8   594 8   659 8   717 8   738
 8   710 8   642 8   547 8   492 8   421 8   386 8   344 8   337 8   350 8   364
 8   415 8   506 8   586 8   674 8   750 8   787 8   753 8   682 8   597 8   499
 8   417 8   362 8   340 8   302 8   286 8   280 8   283 8   276 8   282 8   284
 7   295 7   310 7   319 7   321 7   304 7   298 7   293 7   283 7   277 7   269
 7   265 7   277 7   283 7   283 7   293 7   303 7   320 7   316 7   331 7   346
 7   327 7   328 7   306 7   291 7   286 7   278 7   273 7   267 7   272 7   257
 7   260 7   265 7   264 7   272 7   270 7   268 7   269 7   287 7   292 7   295
 7   317 7   335 7   364 7   410 7   477 7   556 7   642 7   755 7   864 7   946
 7   970 7   941 7   870 7   759 7   647 7   540 7   468 7   418 7   379 7   381
 7   405 7   446 7   476 7   523 7   561 7   555 7   529 7   485 7   436 7   398
 7   355 7   322 7   304 7   285 7   270 7   278 7   260 7   268 7   264 7   265
 7   263 7   267 7   286 7   293 7   291 7   319 7   366 7   411 7   461 7   489
 7   521 7   555 7   550 7   511 7   486 7   436 7   392 7   368 7   330 7   328
 7   343 7   371 7   394 7   441 7   468 7   469 7   456 7   416 7   394 7   361
 7   330 7   312 7   293 7   285 7   286 7   275 7   274 7   281 7   279 7   298
 6   312 6   331 6   375 6   406 6   452 6   506 6   546 6   568 6   589 6   588
 6   537 6   498 6   463 6   402 6   386 6   361 6   350 6   330 6   338 6   359
 6   364 6   385 6   436 6   474 6   544 6   647 6   695 6   763 6   802 6   812
 6   756 6   669 6   606 6   527 6   452 6   409 6   376 6   368 6   391 6   400
 6   444 6   481 6   518 6   556 6   577 6   575 6   557 6   552 6   562 6   592
 6   596 6   583 6   552 6   512 6   482 6   439 6   385 6   342 6   316 6   300
 6   287 6   279 6   267 6   269 6   269 6   271 6   261 6   261 6   265 6   252
 6   260 6   263 6   265 6   260 6   274 6   267 6   271 6   274 6   269 6   264
 6   277 6   272 6   277 6   282 6   290 6   293 6   294 6   300 6   325 6   348
 6   382 6   412 6   466 6   513 6   562 6   585 6   608 6   619 6   594 6   567
 6   526 6   518 6   501 6   480 6   470 6   465 6   469 6   458 6   438 6   448
 6   470 6   470 6   500 6   505 6   519 6   517 6   517 6   502 6   460 6   410
 5   375 5   347 5   347 5   318 5   310 5   302 5   311 5   326 5   320 5   334
 5   374 5   444 5   484 5   561 5   647 5   699 5   747 5   767 5   749 5   723
 5   664 5   619 5   578 5   553 5   541 5   530 5   530 5   525 5   517 5   493
 5   482 5   456 5   423 5   383 5   380 5   343 5   326 5   314 5   302 5   303
 5   290 5   290 5   293 5   277 5   286 5   309 5   327 5   357 5   396 5   468
 5   529 5   590 5   649 5   699 5   720 5   705 5   672 5   635 5   604 5   564
 5   548 5   537 5   564 5   588 5   611 5   636 5   636 5   606 5   600 5   560
 5   512 5   473 5   453 5   428 5   390 5   393 5   401 5   395 5   440 5   479
 5   549 5   618 5   675 5   746 5   803 5   805 5   788 5   748 5   671 5   621
 5   544 5   460 5   421 5   384 5   343 5   321 5   298 5   278 5   287 5   280
 5   268 5   281 5   272 5   287 5   282 5   284 5   300 5   303 5   309 5   322
 5   340 5   347 5   370 5   401 5   420 5   451 5   491 5   508 5   530 5   531
 5   522 4   484 4   468 4   427 4   379 4   365 4   344 4   321 4   294 4   291
 4   284 4   264 4   281 4   261 4   256 4   261 4   266 4   264 4   258 4   262
 4   250 4   261 4   257 4   253 4   247 4   259 4   259 4   256 4   253 4   256
 4   257 4   261 4   246 4   247 4   250 4   270 4   254 4   245 4   254 4   274
 4   272 4   253 4   260 4   272 4   265 4   267 4   276 4   280 4   289 4   318
 4   331 4   366 4   386 4   426 4   461 4   495 4   532 4   591 4   627 4   616
 4   634 4   668 4   645 4   620 4   607 4   560 4   518 4   470 4   445 4   398
 4   376 4   336 4   325 4   301 4   303 4   275 4   273 4   288 4   278 4   274
 4   273 4   260 4   268 4   276 4   276 4   294 4   293 4   277 4   292 4   284
 4   273 4   291 4   287 4   303 4   306 4   315 4   333 4   367 4   387 4   404
 4   440 4   480 4   533 4   601 4   620 4   647 4   663 4   652 4   665 4   630
 4   628 4   577 4   520 4   472 4   453 4   413 4   412 4   396 3   361 3   370
 3   402 3   389 3   423 3   452 3   469 3   498 3   535 3   538 3   564 3   572
 3   585 3   574 3   543 3   495 3   484 3   460 3   428 3   375 3   341 3   340
 3   312 3   309 3   288 3   271 3   273 3   267 3   255 3   266 3   261 3   269
 3   257 3   249 3   245 3   259 3   258 3   259 3   268 3   279 3   256 3   259
 3   287 3   269 3   281 3   268 3   277 3   278 3   287 3   277 3   285 3   284
 3   278 3   288 3   279 3   287 3   289 3   308 3   308 3   288 3   302 3   295
 3   301 3   303 3   294 3   287 3   279 3   279 3   276 3   275 3   264 3   274
 3   269 3   269 3   268 3   261 3   256 3   284 3   279 3   280 3   296 3   297
 3   296 3   308 3   301 3   300 3   297 3   300 3   289 3   290 3   274 3   275
 3   264 3   262 3   249 3   251 3   248 3   252 3   249 3   249 3   262 3   251
 3   239 3   263 3   265 3   240 3   236 3   250 3   248 3   248 3   254 3   262
 3   252 3   246 3   250 3   251 3   247 3   248 3   254 3   236 3   251 3   247
 3   254 3   248 2   259 2   259 2   274 2   263 2   287 2   283 2   281 2   296
 2   292 2   323 2   330 2   339 2   358 2   349 2   365 2   399 2   406 2   428
 2   413 2   439 2   418 2   425 2   411 2   417 2   391 2   393 2   386 2   359
 2   381 2   363 2   364 2   375 2   379 2   392 2   402 2   436 2   451 2   463
 2   452 2   449 2   479 2   485 2   484 2   472 2   508 2   518 2   523 2   561
 2   559 2   573 2   545 2   561 2   568 2   573 2   562 2   573 2   565 2   499
 2   496 2   488 2   449 2   442 2   391 2   387 2   390 2   359 2   338 2   321
 2   322 2   327 2   338 2   306 2   290 2   320 2   308 2   300 2   307 2   306
 2   314 2   318 2   298 2   313 2   303 2   302 2   333 2   285 2   312 2   312
 2   285 2   290 2   288 2   294 2   314 2   300 2   306 2   293 2   299 2   328
 2   325 2   328 2   317 2   292 2   321 2   291 2   302 2   291 2   297 2   301
 2   270 2   262 2   277 2   258 2   258 2   243 2   269 2   257 2   257 2   240
 1   282 1   245 1   243 1   260 1   255 1   275 1   255 1   270 1   286 1   271
 1   258 1   309 1   299 1   297 1   304 1   319 1   314 1   290 1   338 1   316
 1   341 1   384 1   360 1   367 1   383 1   366 1   369 1   363 1   332 1   325
 1   334 1   373 1   336 1   313 1   339 1   325 1   307 1   277 1   286 1   305
 1   277 1   262 1   262 1   241 1   251 1   260 1   245 1   249 1   260 1   256
 1   242 1   258 1   248 1   235 1   245 1   248 1   281 1   228 1   230 1   212
 1   237 1   244 1   231 1   266 1   231 1   234 1   247 1   264 1   247 1   261
 1   223 1   242 1   271 1   247 1   249 1   251 1   232 1   225 1   255 1   209
 1   266 1   255 1   273 1   250 1   234 1   257 1   250 1   270 1   262 1   281
 1   257 1   260 1   257 1   242 1   255 1   250 1   274 1   288 1   275 1   277
 1   278 1   264 1   298 1   312 1   282 1   314 1   341 1   314 1   295 1   326
 1   347 1   336 1   444 1   393 1   375 1   425 1   413 1   415 1   450        
 1   347 1   336 1   444 1   393 1   375 1   425 1   413 1   415 1   450        
