Y3FE2(ALO4)3 RT 1.909                                                           
BANK 1 2679 268 CONST 2400 5 0 0                                                
 1   162 1   178 1   155 1   166 1   180 1   181 1   170 1   170 1   165 1   183
 1   192 1   187 1   197 1   202 1   192 1   187 1   176 1   174 1   194 1   196
 1   182 1   188 1   199 1   211 1   222 1   233 1   218 1   237 1   228 1   220
 1   241 1   217 1   211 1   224 1   199 1   201 1   207 1   192 1   197 1   185
 1   183 1   200 1   186 1   181 1   144 1   153 1   181 1   189 1   183 1   195
 1   182 1   179 1   176 1   169 1   178 1   168 1   159 1   168 1   167 1   175
 1   165 1   166 1   171 1   158 1   166 1   178 1   169 1   164 1   160 1   166
 1   169 1   168 1   159 1   158 1   171 1   183 1   158 1   165 1   181 1   173
 1   170 1   172 1   150 1   162 1   154 1   169 1   147 1   152 1   165 1   165
 1   159 1   170 1   180 1   163 1   165 1   166 1   169 1   154 1   160 1   168
 1   164 1   157 1   150 1   136 1   143 1   160 1   157 1   148 1   152 1   156
 1   162 1   163 1   159 1   149 1   142 1   152 1   162 1   182 1   171 1   154
 2   165 2   168 2   172 2   163 2   158 2   166 2   162 2   154 2   164 2   165
 2   162 2   156 2   171 2   176 2   158 2   159 2   161 2   153 2   157 2   158
 2   157 2   156 2   155 2   155 2   159 2   154 2   155 2   157 2   159 2   166
 2   157 2   147 2   146 2   152 2   154 2   161 2   157 2   154 2   160 2   159
 2   152 2   145 2   157 2   159 2   156 2   154 2   153 2   152 2   150 2   151
 2   155 2   163 2   171 2   158 2   156 2   170 2   179 2   174 2   161 2   168
 2   185 2   180 2   192 2   186 2   183 2   190 2   204 2   194 2   182 2   175
 2   181 2   175 2   156 2   170 2   169 2   163 2   154 2   168 2   168 2   155
 2   143 2   162 2   176 2   165 2   149 2   150 2   159 2   154 2   150 2   145
 2   149 2   145 2   146 2   154 2   149 2   150 2   156 2   159 2   163 2   164
 2   163 2   150 2   151 2   155 2   150 2   153 2   161 2   159 2   149 2   152
 2   157 2   157 2   147 2   148 2   162 2   166 2   176 2   188 2   196 2   210
 3   245 3   301 3   338 3   394 3   477 3   544 3   601 3   662 3   707 3   703
 3   681 3   632 3   551 3   482 3   416 3   340 3   281 3   233 3   195 3   165
 3   148 3   153 3   149 3   147 3   150 3   153 3   153 3   149 3   160 3   152
 3   145 3   153 3   146 3   141 3   139 3   139 3   143 3   155 3   154 3   150
 3   141 3   149 3   151 3   146 3   135 3   143 3   146 3   153 3   150 3   155
 3   155 3   158 3   153 3   154 3   151 3   151 3   154 3   159 3   160 3   141
 3   151 3   153 3   152 3   155 3   145 3   138 3   145 3   145 3   156 3   151
 3   142 3   144 3   160 3   153 3   154 3   148 3   149 3   154 3   155 3   156
 3   162 3   167 3   167 3   170 3   178 3   172 3   161 3   167 3   201 3   234
 3   263 3   325 3   416 3   544 3   672 3   768 3   920 3   991 3  1051 3  1071
 3  1002 3   919 3   845 3   704 3   574 3   472 3   348 3   287 3   228 3   178
 3   166 3   156 3   147 3   146 3   156 3   152 3   143 3   158 3   148 3   156
 4   150 4   154 4   156 4   149 4   146 4   148 4   149 4   151 4   164 4   161
 4   173 4   199 4   226 4   270 4   339 4   414 4   494 4   606 4   716 4   815
 4   839 4   860 4   837 4   768 4   678 4   595 4   483 4   383 4   315 4   256
 4   203 4   181 4   164 4   154 4   151 4   154 4   145 4   152 4   153 4   148
 4   161 4   144 4   147 4   149 4   151 4   150 4   156 4   147 4   152 4   150
 4   154 4   165 4   160 4   161 4   168 4   179 4   192 4   208 4   221 4   244
 4   252 4   262 4   252 4   234 4   234 4   217 4   207 4   195 4   178 4   167
 4   157 4   158 4   153 4   140 4   143 4   148 4   150 4   136 4   143 4   149
 4   150 4   149 4   148 4   154 4   149 4   146 4   145 4   152 4   156 4   163
 4   178 4   194 4   237 4   288 4   352 4   439 4   539 4   648 4   746 4   835
 4   874 4   882 4   834 4   731 4   646 4   540 4   423 4   357 4   262 4   213
 4   181 4   166 4   160 4   154 4   149 4   164 4   156 4   151 4   150 4   144
 5   149 5   148 5   147 5   146 5   146 5   147 5   143 5   139 5   143 5   147
 5   145 5   147 5   151 5   148 5   151 5   147 5   150 5   153 5   150 5   150
 5   148 5   153 5   158 5   153 5   156 5   156 5   160 5   175 5   177 5   169
 5   171 5   169 5   172 5   174 5   181 5   174 5   181 5   176 5   177 5   193
 5   190 5   191 5   208 5   210 5   215 5   227 5   241 5   269 5   314 5   384
 5   479 5   601 5   695 5   814 5   884 5   947 5   921 5   868 5   780 5   657
 5   547 5   437 5   327 5   250 5   211 5   179 5   171 5   163 5   161 5   155
 5   153 5   161 5   163 5   162 5   154 5   156 5   148 5   151 5   147 5   151
 5   142 5   158 5   161 5   156 5   172 5   181 5   189 5   211 5   242 5   257
 5   274 5   277 5   285 5   275 5   258 5   235 5   223 5   197 5   173 5   161
 5   157 5   165 5   158 5   158 5   155 5   161 5   164 5   154 5   144 5   151
 5   161 5   152 5   153 5   151 5   155 5   157 5   153 5   155 5   145 5   148
 5   145 6   151 6   158 6   151 6   149 6   152 6   149 6   147 6   146 6   152
 6   150 6   142 6   151 6   147 6   147 6   148 6   149 6   145 6   151 6   151
 6   147 6   146 6   145 6   151 6   148 6   142 6   146 6   141 6   137 6   144
 6   147 6   150 6   145 6   148 6   149 6   150 6   149 6   149 6   148 6   143
 6   152 6   157 6   152 6   153 6   148 6   153 6   148 6   146 6   156 6   160
 6   153 6   153 6   153 6   153 6   154 6   155 6   147 6   152 6   146 6   148
 6   150 6   150 6   151 6   158 6   176 6   203 6   242 6   319 6   420 6   570
 6   762 6   961 6  1153 6  1295 6  1381 6  1367 6  1274 6  1124 6   923 6   747
 6   566 6   404 6   300 6   225 6   191 6   161 6   150 6   154 6   152 6   151
 6   144 6   143 6   147 6   148 6   147 6   151 6   146 6   152 6   163 6   168
 6   191 6   227 6   257 6   311 6   361 6   414 6   456 6   482 6   483 6   459
 6   427 6   381 6   320 6   276 6   231 6   200 6   186 6   174 7   158 7   162
 7   169 7   163 7   164 7   163 7   162 7   165 7   171 7   162 7   169 7   176
 7   171 7   163 7   164 7   166 7   168 7   174 7   175 7   185 7   183 7   186
 7   183 7   189 7   178 7   170 7   159 7   160 7   161 7   151 7   153 7   152
 7   150 7   146 7   145 7   143 7   149 7   151 7   152 7   154 7   153 7   145
 7   146 7   141 7   145 7   150 7   146 7   146 7   143 7   149 7   146 7   141
 7   142 7   145 7   149 7   143 7   136 7   135 7   138 7   150 7   144 7   141
 7   138 7   142 7   140 7   143 7   143 7   146 7   146 7   149 7   149 7   147
 7   153 7   156 7   164 7   172 7   182 7   187 7   192 7   195 7   204 7   209
 7   213 7   212 7   222 7   214 7   215 7   202 7   199 7   187 7   178 7   167
 7   162 7   164 7   160 7   157 7   154 7   150 7   150 7   154 7   154 7   148
 7   151 7   150 7   150 7   150 7   156 7   157 7   171 7   192 7   224 7   271
 7   332 7   407 7   476 7   539 7   566 7   564 7   524 7   469 7   414 7   332
 7   269 7   226 8   185 8   160 8   151 8   149 8   143 8   142 8   140 8   136
 8   138 8   137 8   136 8   134 8   139 8   141 8   139 8   141 8   147 8   150
 8   159 8   164 8   162 8   164 8   171 8   162 8   159 8   158 8   155 8   151
 8   152 8   148 8   145 8   140 8   143 8   142 8   140 8   143 8   141 8   140
 8   145 8   141 8   142 8   147 8   148 8   163 8   187 8   240 8   332 8   483
 8   701 8  1009 8  1350 8  1692 8  1959 8  2135 8  2161 8  1987 8  1714 8  1380
 8  1034 8   729 8   501 8   337 8   243 8   197 8   172 8   160 8   150 8   147
 8   150 8   146 8   144 8   148 8   146 8   151 8   148 8   149 8   159 8   176
 8   197 8   227 8   259 8   299 8   326 8   354 8   355 8   351 8   317 8   272
 8   240 8   200 8   180 8   162 8   146 8   140 8   139 8   145 8   148 8   145
 8   146 8   150 8   151 8   158 8   163 8   177 8   210 8   276 8   378 8   576
 8   870 8  1238 8  1701 8  2129 8  2479 8  2664 8  2638 8  2403 8  2021 8  1604
 9  1180 9   797 9   522 9   348 9   249 9   193 9   166 9   145 9   139 9   140
 9   137 9   138 9   134 9   136 9   139 9   139 9   139 9   136 9   141 9   138
 9   132 9   135 9   135 9   138 9   133 9   134 9   137 9   137 9   136 9   140
 9   140 9   140 9   137 9   141 9   138 9   135 9   136 9   137 9   140 9   140
 9   144 9   141 9   139 9   136 9   137 9   133 9   134 9   134 9   140 9   139
 9   136 9   137 9   138 9   136 9   137 9   135 9   138 9   134 9   129 9   131
 9   133 9   134 9   126 9   131 9   126 9   130 9   136 9   135 9   128 9   130
 9   141 9   134 9   133 9   136 9   136 9   142 9   150 9   166 9   183 9   219
 9   259 9   305 9   333 9   345 9   346 9   330 9   289 9   253 9   215 9   183
 9   159 9   143 9   140 9   138 9   133 9   131 9   129 9   130 9   130 9   130
 9   132 9   136 9   138 9   141 9   149 9   166 9   195 9   232 9   293 9   367
 9   433 9   485 9   503 9   517 9   472 9   413 9   342 9   27410   22410   187
10   16610   15510   14610   14110   14310   14310   14210   13910   13910   138
10   14410   15210   15310   16010   17210   18910   21910   26010   29810   334
10   36310   37710   36510   33610   29610   25310   20510   17310   15210   147
10   13810   13210   12910   12410   12710   12610   13110   12510   12410   128
10   12910   13310   13510   14810   16610   19110   21710   26510   30110   325
10   33110   30910   29110   25710   22810   19710   17410   16110   14910   143
10   13910   13310   13010   13410   13410   13010   13610   13710   13110   133
10   13310   14110   15310   16510   18810   21410   23810   25610   26610   263
10   25110   22810   19710   17610   15310   13610   13910   13610   13010   125
10   12410   12810   13010   12710   12310   12510   12510   12910   12910   131
10   13910   14810   15710   18410   20610   22610   24010   23110   23310   209
10   19610   17810   15410   14510   13510   13210   13110   11810   12310   124
10   12610   12410   12910   13010   12110   12710   13110   13610   15210   165
10   18810   22610   27010   30910   33210   33110   31710   29510   26010   226
10   19410   16610   15410   14310   13810   13610   13710   13310   13010   130
10   12710   12910   13310   12910   12410   12710   12510   12410   12610   128
10   13110   12910   12710   13110   12710   13310   13810   12810   13210   136
10   12910   12810   13110   12510   12810   12910   13110   12610   12810   129
10   13110   13310   12410   12810   12910   13710   14910   16610   18010   204
10   22010   22810   21910   21310   19510   17210   16110   15210   13810   132
10   12710   12610   13010   12810   12510   12610   12710   12710   13110   129
10   13510   14210   15910   20310   26310   37410   51010   65910   79010   861
10   86910   82110   68410   54310   40710   30010   22510   18110   15210   140
10   12910   12410   12910   12610   12410   12610   12110   12010   11610   126
10   12510   12110   11910   12410   12710   12410   12410   12710   12910   128
10   12710   12510   12210   12210   12810   13210   12310   12710   13310   136
10   13410   13310   13510   13010   13310   13610   13410   14010   15510   176
10   21610   28410   38710   50710   63110   71910   73710   70110   61510   508
10   39910   29810   22510   18110   15710   14110   13210   12710   12410   124
10   11810   12210   12310   12610   13110   13510   14010   15710   18510   241
10   32510   40510   50610   57210   60310   59010   51910   43910   34610   272
10   21610   17810   15210   14210   13110   13010   12710   12710   12510   125
10   12710   12410   12710   13410   14210   15410   18510   23910   32010   421
10   52910   62010   67610   66010   59210   48810   38810   30110   23510   187
10   15410   14110   13710   12610   12410   11910   12210   12510   12710   124
10   13210   12810   14110   15710   20310   28910   40710   57710   76010   919
10  102910  103810   96410   80410   61610   47410   34610   26310   19910   167
10   14910   14110   12910   12710   12910   12810   13410   13410   13410   136
10   13410   12810   12610   12510   12310   12210   12310   12710   12810   126
10   12410   12610   12510   12210   12510   11510   12210   12210   12210   120
10   12110   12210   12110   12210   12610   13110   13010   13310   12510   122
10   12710   13110   13810   14510   15110   16010   16710   16810   16910   157
10   15310   14710   13410   13310   12610   12510   12310   12410   12510   126
10   13110   12910   13110   13510   13210   13110   13110   13510   13510   138
10   15010   16610   19210   22010   23910   25810   26710   25210   23610   208
10   17510   15710   14610   14110   13610   13310   12610   12810   12910   134
10   13810   13310   13510   13710   13910   14610   16010   20910   29210   419
10   62610   89010  119510  144910  161910  163110  147510  123710   96210   721
10   53310   37710   28310   21410   17710   15110   14610   13510   12710   127
10   13010   12910   12910   13110   12610   12710   12810   12810   12910   128
10   12710   12610   13610   13010   12710   12710   12510   12510   12210   124
10   13110   12510   12310   12810   12910   12410   12010   12810   12610   131
10   132 9   127 9   123 9   129 9   130 9   131 9   145 9   165 9   194 9   225
 9   275 9   308 9   331 9   333 9   315 9   271 9   233 9   202 9   179 9   152
 9   139 9   135 9   130 9   125 9   129 9   126 9   125 9   120 9   123 9   117
 9   121 9   122 9   128 9   137 9   152 9   180 9   229 9   297 9   392 9   503
 9   596 9   665 9   666 9   620 9   530 9   438 9   345 9   281 9   221 9   180
 9   163 9   150 9   140 9   132 9   131 9   132 9   132 9   134 9   136 9   131
 9   127 9   129 9   132 9   132 9   147 9   157 9   191 9   232 9   287 9   338
 9   355 9   365 9   356 9   321 9   275 9   240 9   199 9   174 9   154 9   142
 9   135 9   131 9   122 9   122 9   121 9   123 9   120 9   121 9   123 9   120
 9   116 9   121 9   124 9   125 9   129 9   122 9   126 9   127 9   130 9   134
 9   128 9   126 9   125 9   128 9   131 9   123 9   124 9   122 9   129 9   123
 9   120 9   124 9   125 9   123 9   125 9   118 9   120 9   124 9   126 9   123
 9   125 8   132 8   131 8   135 8   157 8   193 8   244 8   314 8   388 8   446
 8   486 8   500 8   473 8   411 8   345 8   293 8   239 8   203 8   172 8   157
 8   141 8   135 8   128 8   128 8   125 8   118 8   118 8   112 8   110 8   119
 8   115 8   118 8   112 8   122 8   122 8   116 8   116 8   114 8   118 8   120
 8   117 8   121 8   119 8   120 8   116 8   120 8   121 8   123 8   117 8   116
 8   121 8   117 8   122 8   122 8   122 8   121 8   121 8   116 8   120 8   122
 8   116 8   117 8   123 8   126 8   130 8   133 8   140 8   160 8   177 8   187
 8   203 8   205 8   205 8   193 8   180 8   171 8   160 8   152 8   142 8   135
 8   133 8   128 8   130 8   129 8   127 8   127 8   122 8   122 8   129 8   132
 8   125 8   127 8   147 8   155 8   187 8   247 8   330 8   462 8   646 8   842
 8  1055 8  1200 8  1284 8  1251 8  1136 8   963 8   771 8   602 8   457 8   350
 8   283 8   225 8   193 8   163 8   149 8   141 8   132 8   129 8   125 8   121
 8   125 7   127 7   124 7   120 7   125 7   117 7   128 7   138 7   148 7   159
 7   182 7   214 7   221 7   235 7   239 7   232 7   213 7   200 7   178 7   166
 7   154 7   144 7   134 7   133 7   127 7   123 7   124 7   126 7   126 7   119
 7   123 7   132 7   128 7   121 7   125 7   143 7   167 7   207 7   265 7   355
 7   506 7   678 7   870 7  1074 7  1244 7  1300 7  1288 7  1189 7  1033 7   839
 7   654 7   508 7   400 7   304 7   248 7   202 7   177 7   160 7   139 7   132
 7   131 7   128 7   127 7   126 7   124 7   124 7   124 7   122 7   119 7   124
 7   128 7   136 7   137 7   139 7   149 7   157 7   169 7   163 7   169 7   165
 7   161 7   156 7   156 7   148 7   135 7   126 7   129 7   126 7   128 7   127
 7   121 7   119 7   120 7   120 7   122 7   125 7   119 7   116 7   120 7   124
 7   123 7   117 7   118 7   122 7   116 7   120 7   126 7   120 7   121 7   119
 7   116 7   121 7   124 7   119 7   121 7   120 7   122 7   122 7   120 7   118
 7   117 6   124 6   125 6   122 6   117 6   118 6   118 6   118 6   121 6   121
 6   115 6   124 6   122 6   126 6   143 6   142 6   169 6   206 6   247 6   306
 6   354 6   404 6   459 6   482 6   490 6   470 6   440 6   379 6   327 6   285
 6   239 6   207 6   175 6   160 6   156 6   136 6   142 6   137 6   131 6   133
 6   128 6   127 6   123 6   127 6   128 6   130 6   126 6   139 6   162 6   187
 6   226 6   281 6   352 6   441 6   536 6   625 6   696 6   721 6   718 6   697
 6   630 6   540 6   473 6   381 6   316 6   261 6   224 6   190 6   167 6   152
 6   138 6   137 6   136 6   128 6   124 6   119 6   122 6   123 6   120 6   121
 6   117 6   123 6   124 6   122 6   122 6   119 6   128 6   131 6   130 6   119
 6   120 6   130 6   118 6   120 6   125 6   126 6   135 6   124 6   127 6   128
 6   124 6   130 6   131 6   126 6   122 6   128 6   125 6   121 6   130 6   122
 6   121 6   116 6   120 6   121 6   121 6   117 6   119 6   120 6   125 6   116
 6   116 5   125 5   126 5   129 5   120 5   120 5   122 5   120 5   125 5   133
 5   120 5   113 5   126 5   122 5   124 5   128 5   129 5   132 5   128 5   125
 5   125 5   125 5   127 5   124 5   124 5   126 5   129 5   132 5   125 5   131
 5   127 5   126 5   138 5   139 5   140 5   156 5   166 5   179 5   194 5   216
 5   244 5   256 5   275 5   270 5   279 5   293 5   288 5   256 5   242 5   220
 5   204 5   182 5   166 5   163 5   156 5   143 5   138 5   132 5   133 5   131
 5   122 5   132 5   131 5   125 5   130 5   125 5   123 5   121 5   131 5   128
 5   135 5   135 5   139 5   143 5   158 5   178 5   190 5   204 5   228 5   240
 5   252 5   263 5   266 5   250 5   252 5   230 5   211 5   192 5   180 5   176
 5   151 5   148 5   137 5   134 5   133 5   136 5   122 5   117 5   126 5   124
 5   128 5   131 5   118 5   113 5   121 5   126 5   123 5   124 5   129 5   129
 5   139 5   156 5   162 5   181 5   183 5   199 5   213 5   237 5   249 5   255
 5   251 5   244 4   248 4   235 4   217 4   218 4   199 4   182 4   168 4   153
 4   145 4   133 4   129 4   128 4   124 4   126 4   132 4   133 4   123 4   126
 4   119 4   121 4   118 4   119 4   124 4   136 4   135 4   150 4   150 4   164
 4   173 4   203 4   217 4   253 4   294 4   319 4   326 4   349 4   371 4   373
 4   378 4   376 4   346 4   329 4   309 4   290 4   252 4   230 4   210 4   192
 4   165 4   168 4   160 4   143 4   144 4   149 4   136 4   127 4   129 4   122
 4   123 4   130 4   126 4   119 4   125 4   119 4   124 4   125 4   120 4   127
 4   121 4   131 4   140 4   139 4   128 4   132 4   146 4   154 4   158 4   150
 4   151 4   167 4   156 4   161 4   160 4   155 4   151 4   142 4   144 4   149
 4   130 4   132 4   129 4   134 4   124 4   127 4   132 4   127 4   128 4   131
 4   129 4   133 4   135 4   129 4   136 4   144 4   130 4   137 4   155 4   150
 4   157 4   169 4   179 4   193 4   220 4   243 4   269 4   276 4   304 3   311
 3   358 3   388 3   392 3   383 3   392 3   384 3   378 3   365 3   347 3   329
 3   293 3   265 3   253 3   220 3   190 3   201 3   178 3   166 3   160 3   165
 3   150 3   157 3   158 3   154 3   144 3   140 3   153 3   151 3   146 3   153
 3   164 3   161 3   161 3   181 3   188 3   188 3   208 3   225 3   248 3   282
 3   313 3   330 3   361 3   401 3   427 3   449 3   468 3   498 3   469 3   481
 3   494 3   488 3   442 3   411 3   395 3   356 3   324 3   299 3   268 3   247
 3   230 3   209 3   190 3   185 3   183 3   159 3   146 3   148 3   132 3   143
 3   137 3   147 3   138 3   129 3   128 3   134 3   132 3   142 3   140 3   148
 3   150 3   161 3   183 3   189 3   198 3   227 3   241 3   253 3   278 3   292
 3   312 3   330 3   334 3   357 3   368 3   397 3   374 3   356 3   361 3   345
 3   345 3   316 3   281 3   265 3   257 3   243 3   213 3   211 3   184 3   183
 3   173 3   159 3   165 3   168 3   152 3   148 3   152 3   142 3   136 3   153
 3   145 3   142 3   143 2   133 2   134 2   142 2   133 2   143 2   136 2   138
 2   143 2   149 2   159 2   167 2   167 2   182 2   170 2   177 2   190 2   205
 2   198 2   224 2   233 2   222 2   237 2   228 2   237 2   213 2   217 2   206
 2   211 2   215 2   196 2   191 2   175 2   190 2   179 2   168 2   162 2   172
 2   163 2   154 2   162 2   157 2   145 2   131 2   150 2   148 2   144 2   143
 2   149 2   163 2   149 2   163 2   161 2   162 2   163 2   169 2   192 2   195
 2   235 2   248 2   275 2   332 2   381 2   425 2   466 2   550 2   589 2   661
 2   732 2   798 2   852 2   922 2   960 2  1023 2  1063 2  1123 2  1090 2  1129
 2  1122 2  1152 2  1141 2  1066 2  1049 2   991 2   941 2   892 2   832 2   795
 2   700 2   646 2   540 2   487 2   442 2   392 2   349 2   333 2   299 2   268
 2   236 2   248 2   229 2   217 2   187 2   181 2   176 2   166 2   165 2   151
 2   159 2   169 2   158 2   153 2   148 2   151 2   156 2   177 2   168 2   177
 2   162 1   172 1   205 1   226 1   180 1   216 1   236 1   227 1   236 1   275
 1   262 1   297 1   277 1   338 1   319 1   326 1   341 1   356 1   344 1   334
 1   337 1   327 1   369 1   310 1   311 1   307 1   310 1   308 1   303 1   258
 1   225 1   250 1   207 1   233 1   218 1   199 1   221 1   189 1   191 1   167
 1   186 1   164 1   175 1   152 1   152 1   157 1   173 1   164 1   168 1   128
 1   145 1   143 1   138 1   137 1   158 1   140 1   151 1   140 1   169 1   147
 1   147 1   145 1   144 1   131 1   124 1   133 1   119 1   149 1   159 1   134
 1   155 1   157 1   132 1   129 1   145 1   161 1   143 1   148 1   125 1   149
 1   138 1   183 1   131 1   152 1   126 1   126 1   141 1   141 1   127 1   142
 1   128 1   145 1   162 1   147 1   152 1   134 1   139 1   128 1   140 1   142
 1   135 1   158 1   141 1   140 1   135 1   127 1   137 1   130 1   115 1   133
 1   143 1   153 1   159 1   139 1   147 1   118 1   130 1   140 1   135 0     0

