ALPHA SI3N4 40MA 4SEC STEP               7/19/1990   8: 6: 0                    
BANK 1      5500     550 CONST    1000.00 2.00                                  
      77      82      85      63      89      62      71      77      83      52
      67      64      45      76      77      59      64      59      69      83
      52      95      61      69      88      89      57      49      63      70
      59      51      64      54      52      54      71      76      64      87
      75      64      60      70      86      46      73      60      61      70
      68      73      60      60      53      66      66      74      71      67
      52      77      57      66      55      65      75      54      83      70
      64      62      75      40      83      61      63      63      68      64
      47      67      66      71      68      73      85      79      66      83
      69      58      65      56      61      70      62      47      68      72
      61      64      68      74      73      54      66      52      61      53
      56      53      42      70      59      59      68      69      63      60
      72      75      64      86      47      77      66      70      55      71
      82      69      81      57      61      95     103      96      68      84
      82      82     104     109      68      95      90     117     103     141
     184     209     244     319     381     552     714     916    1120    1209
    1200     950     726     530     397     294     252     183     184     168
     221     205     210     162     150     138     122      98     107      90
      82      88      70      78      67      74      77      66      48      63
      52      62      63      50      50      50      68      32      58      63
      75      66      54      62      60      66      65      66      43      56
      57      57      61      64      59      54      66      70      61      62
      59      54      44      38      59      56      56      46      60      44
      61      56      60      60      48      52      33      56      53      63
      62      48      39      48      56      63      41      54      39      63
      51      55      52      34      46      61      33      39      71      32
      52      35      58      39      47      43      60      47      43      34
      52      30      45      38      44      58      59      36      67      48
      46      45      41      54      55      53      43      43      51      66
      39      36      47      35      52      38      60      47      47      48
      45      45      54      57      44      60      53      43      51      43
      54      44      44      39      41      34      48      54      52      44
      43      35      64      42      44      51      50      38      29      32
      36      40      42      60      19      51      52      27      42      42
      36      54      51      52      53      27      41      39      41      35
      38      53      40      42      42      42      38      32      33      48
      49      45      53      81      75      35      33      32      42      46
      43      32      30      42      46      50      41      49      23      50
      40      55      43      47      47      53      47      36      55      30
      67      42      47      55      40      32      34      59      40      58
      51      37      56      34      68      32      45      46      42      71
      45      38      32      55      59      74      54      41      37      61
      43      37      37      43      51      46      45      49      38      45
      38      40      53      45      57      64      57      45      62      58
      44      42      56      40      46      55      57      45      40      77
      63      56      55      55      43      51      46      64      43      43
      51      57      61      61      39      61      44      74      71      64
      56      65      65      57      62      93      91      78      87      78
      98      99      96      69      73      95      79     103      92     108
     101      85      95     121      99     106      92      91     104     123
      97     115     105     136     155     150     137     124     138     177
     170     190     204     214     246     250     281     359     383     492
     544     724     900    1251    1441    2058    2751    3602    4535    5502
    6002    5836    5127    4007    2996    2240    1551    1162     915     652
     551     472     436     331     282     211     232     205     216     174
     163     144     126     139     117     127      87      92     101      84
     103      86      97      88     103      93     101     100      71      72
      71      89      89      80      79      81      67      73      60      72
      76      80      73      92      66      62      80      70      88      54
      74      30      64      84      81      49      68     121      64      64
      65      75      83      62      67      82      63      71      63      73
      62      61      71      69      65      86      60      75      82      89
      81      79      82      67      81      81      68      86      83      97
     106     145     140     145     163     179     216     316     330     463
     580     780    1095    1507    1967    2423    2700    2769    2423    2017
    1602    1201     819     558     454     320     263     242     226     181
     159     177     139     132     169     116     165     161     148     160
     147     147     143     124     123     100      92      92      62      72
      71      83      69      69      63      62      52      60      57      61
      65      46      43      57      43      51      82      46      36      50
      56      40      54      46      60      55      35      51      49      54
      46      52      55      43      38      39      46      50      30      59
      49      55      62      38      39      38      34      44      32      35
      37      59      69      29      40      46      52      34      44      58
      50      49      49      54      41      39      56      47      33      45
      63      55      46      51      53      40      48      47      47      58
      53      39      37      52      36      45      46      48      50      64
      54      47      44      68      38      71      52      53      40      44
      57      45      44      49      61      63      56      48      36      69
      56      73      49      59      64      54      62      53      95      46
      73      41      50      65      67      73      67      67      72      91
      94      91     112     120     147     157     175     246     247     308
     427     478     713     920    1284    1503    1796    1828    1702    1422
    1323    1029     726     566     388     302     229     220     180     152
     149     150     142     168     126     171     159     164     201     188
     204     209     192     281     217     268     180     214     135     157
     152     112     110      82      78      47      80      63      62      58
      68      66      74      50      59      44      50      50      62      57
      52      37      60      36      48      59      36      53      52      38
      43      45      26      37      31      50      65      40      42      46
      46      39      51      30      47      37      43      38      40      39
      48      25      45      37      30      45      63      36      27      44
      34      56      29      50      42      44      32      53      41      50
      40      42      47      51      47      52      51      35      41      43
      50      55      37      66      51      42      43      62      28      48
      42      43      55      38      49      60      45      45      47      33
      47      45      40      43      43      49      55      58      51      48
      41      72      45      45      58      62      67      64      61      72
      68      77      79      72      52      99      69      73      53      78
      65      77      54      33      78      70      73      77      60      71
      57      64      56      82      94      59      88      73      75      53
      76      62      71      72      73      80      98      85     119      84
     110      76     120     106     111      98     112     105     149     154
     173     169     180     181     246     223     301     368     346     497
     592     654     895    1139    1372    1787    2293    3115    3924    4541
    4886    4826    4539    4001    3433    2928    2288    1619    1235     948
     785     596     467     409     329     341     269     247     214     227
     165     164     139     125     170     143     114     155     102     139
     125     147     176     138     209     239     216     280     377     451
     536     591     580     566     508     384     346     300     219     206
     120     104      95      84     104      82      82      77      51      64
      60      60      61      54      47      53      68      74      74      58
      61      56      60      49      60      61      73      50      64      40
      43      51      68      37      47      62      61      48      86      48
      58      74      42      53      68      86      71      75      61      61
     107      73      92      75      96      77      86      62      77      78
      53      68      69      77      75      78      82      64      90      84
      69      96     116      82      98     118     118     151     165     177
     190     188     247     231     293     239     245     267     255     203
     209     135     186     174     175     164     154     139     131     120
     159     142     148     144     153     133     166     139     155     168
     158     225     223     252     254     301     344     408     523     618
     716     844    1023    1377    1729    2172    2809    3583    4096    4551
    4200    3650    3316    2942    2562    2089    1500    1168     888     688
     601     480     437     365     329     326     298     291     298     302
     277     277     303     381     357     448     560     667     706     839
    1105    1415    1793    2348    2951    3685    4488    4746    4501    4133
    3641    3188    2721    2259    1770    1282     984     740     606     552
     422     395     297     308     237     238     191     207     174     187
     171     184     151     149     174     188     201     182     206     185
     193     223     233     257     258     226     198     192     162     141
     122     148     129     124     106     101      82     106      91      70
     102      56      81      67      70      66      46      68      69      67
      62      35      58      57      50      56      51      52      54      44
      40      56      63      52      47      48      58      62      44      60
      60      44      70      54      63      44      38      46      53      54
      60      75      50      62      76      53      60      55      48      40
      32      38      54      57      36      61      48      55      51      26
      60      58      82      59      40      51      57      50      55      39
      44      79      56      50      41      63      54      65      76      51
      52      43      68      47      59      53      63      51      51      46
      80      42      51      58      67      53      88      75      72      71
      90      90      74      81      76      93     112     128     138     168
     176     187     200     203     305     316     363     527     576     742
     901    1286    1623    1928    2337    2444    2380    2213    2008    1754
    1663    1518    1261     910     700     503     492     371     303     257
     219     166     149     157     143     139     152     147     130     159
     150     172     171     211     238     315     366     451     513     552
     533     482     462     417     341     321     286     245     148     158
     102      99      98     114      89      91      85      71     109      70
     116      93      93      66      98     110     115     118     133     216
     238     265     249     356     302     276     242     292     244     199
     189     136     123     121     104     100      86      65      29      68
      63      62      70      59      58      44      58      45      50      51
      55      48      49      63      67      59      75      77      66      57
      60      67      65      68      96      42      56      66      73      70
      77      78      94      91      85     106      87     104      90     109
     135     153      89      93     129     132     128     140     148     121
     152     155     188     174     237     260     355     338     486     527
     684     836    1064    1256    1327    1322    1244    1033     983     900
     787     781     560     470     372     299     222     216     190     162
     170     123     100     105      83      75      84      80      78      73
      64      67      60      57      58      54      62      47      40      48
      49      67      50      51      53      69      45      66      62      58
      54      61      60      62      50      74      54      74      67      77
      85      80      68      81      79      93     117     129     148     139
     138     190     198     232     289     316     390     488     618     778
     978    1244    1434    1760    1909    1851    1713    1476    1405    1289
    1142    1059     883     671     478     396     301     234     245     194
     186     132     128     100     126     102     100     101      71      59
      86      61      45      71      55      61      51      57      60      57
      44      64      35      50      51      45      52      51      29      55
      40      30      40      39      50      35      45      32      33      23
      43      55      38      45      42      42      20      29      34      51
      35      24      45      32      35      46      33      44      45      32
      30      33      24      54      38      29      39      28      36      24
      31      39      36      46      32      23      31      28      26      31
      36      30      40      25      56      22      38      28      22      35
      27      50      32      38      48      31      20      28      31      32
      36      36      27      35      31      27      34      39      34      40
      40      21      36      39      35      47      47      53      28      26
      41      25      23      30      41      25      36      33      44      46
      29      35      40      50      53      30      30      50      31      47
      65      62      78      49      71      82      93     141     169     166
     191     193     228     186     159     170     140     132     124     128
      72      80      67      84      68      56      42      42      43      58
      32      38      46      38      44      36      30      49      30      50
      54      51      46      43      37      40      48      51      33      34
      47      46      54      51      57      42      62      51      50      45
      41      69      48      56      51      67      66      71      60      76
      84     104      72     102      85     131      91     162     203     203
     274     264     336     363     384     402     354     341     319     306
     311     271     203     187     155     132     131     109      89     133
      81      96      75     123     136     120     128     132     200     237
     232     293     359     355     380     318     323     249     260     255
     239     206     146     131     134      86      82      73      59      44
      63      48      63      73      55      47      46      52      51      43
      43      53      39      45      52      42      48      39      56      52
      33      51      36      39      54      60      32      53      43      74
      69      48      73      47      44      59      57      60      63      60
      56      48      50      63      48      40      55      57      53      54
      61      93      49      92     102      73     126     130     135     186
     158     203     220     281     398     377     492     453     557     400
     375     310     343     312     302     223     210     190     145     139
     121     111     103      88      71      93      58      71      62      83
      43      60      68      59      61      56      58      58      71      60
      63      80      69      65      80      67      88      90      95     113
     114     134     129     161     170     196     282     287     408     438
     587     640     749     807     660     663     637     545     513     535
     451     415     391     304     226     203     220     104     118     145
     130     101     104     128     126     107     119     136     100     118
     127     135     140     107     116      96      92      72      85      83
      61      61      55      65      55      44      49      47      41      48
      40      46      46      35      39      47      32      33      42      45
      42      24      36      52      32      37      40      37      37      34
      37      36      28      38      25      26      39      35      22      37
      51      33      37      42      31      32      22      32      31      37
      36      34      39      33      44      35      37      51      35      58
      45      32      40      33      16      29      32      29      37      31
      34      31      29      19      40      51      35      39      32      39
      38      26      39      48      36      35      25      22      32      32
      27      24      34      36      34      30      30      23      34      45
      31      27      36      44      34      47      43      24      26      32
      31      54      27      24      18      43      28      37      41      32
      32      41      31      24      29      40      40      35      27      45
      32      34      43      29      47      41      46      56      55      48
      28      59      39      38      27      30      32      55      34      31
      27      27      49      43      39      29      52      29      35      56
      52      48      44      31      23      25      47      42      45      46
      41      73      59      71      54      58      71      56      80     100
     100     119     125     155     144     190     221     306     307     302
     281     262     234     220     223     205     219     219     195     148
     133      96     110      96      92      79      49      62      60      57
      46      56      63      55      45      58      37      46      67      57
      29      60      57      45      57      53      40      40      60      60
      35      57      50      41      56      75      51      56      84      77
      91      97      76      88      67      78      60      82      95      99
     113     109     140     124     155     180     205     245     277     305
     365     434     534     696     781     880     879     905     824     691
     673     654     626     592     572     550     492     368     364     265
     243     206     144     136     137     131     110     104     102      60
      71      84      64      67      76      60      38      49      46      68
      63      43      33      49      50      52      59      48      44      66
      37      37      38      41      47      36      47      52      41      54
      55      42      41      44      37      54      33      57      46      41
      49      58      32      42      52      57      41      47      44      49
      47      59      66      72      46      57      84      71     114      74
     112     138     150     185     137     189     185     159     133     149
     126     122     125     106     103     105      90      85      91      92
      70      71      99      97      89     123     104     131     150     123
     170     168     117     117     125     101     118     117     131     102
      99      89      91      74      46      49      45      38      49      45
      45      62      64      42      49      35      33      42      42      65
      41      53      67      47      35      59      49      44      55      39
      55      40      28      47      65      48      37      46      58      48
      67      80      63      62      61      68      73      77      62      74
      84      89      95     103     115     125     136     181     193     225
     212     259     281     275     241     294     228     227     156     179
     214     169     178     144     176     122     151     107      93      94
     104      64      63      81      85      90      86      95      85      58
      73      88     114      94     121     108     114     155     159     152
     176     202     205     269     299     465     481     575     676     853
    1019    1129    1191    1195    1115    1007     917     815     817     755
     775     762     659     627     519     455     326     289     247     187
     227     159     143     138     157     123     104     105      85      88
      56     100     100      72      73      93      80      71      64      79
      57      77      73      74      50      71      76     105     104      96
     113      87      94     101     100      72      65      88      82      79
      87      65      76      87      61      63      79      48      48      53
      79      52      71      74      82      72      82      88      69      91
      83      87     101      71      74      88      81      62      78      76
      94      82      69      89      91      86      87     121      87      78
      97      99     110     112     105     128     125     167     171     202
     229     224     269     319     393     381     497     545     696     825
     929    1016     996     968     872     793     716     640     677     599
     643     625     629     523     456     377     313     280     235     202
     207     151     150     130     127     136     128     143     118     121
     131     112     134     106     124     152     160     176     221     210
     232     290     310     354     434     598     595     690     862     936
     923     911     863     751     691     650     630     658     668     585
     536     468     426     342     305     249     268     225     203     186
     173     172     185     192     201     179     234     272     303     381
     405     459     516     566     572     543     512     423     425     411
     329     391     369     387     309     282     298     190     173     160
     161     146     123     101      79      95      78      95     101      73
      74      67      60      72      65      53      69      63      36      84
      49      54      43      59      48      47      59      59      61      66
      58      34      48      44      59      36      64      33      53      53
      53      46      60      57      48      62      88      58      74      54
      53      65      75      69      80      81      77      75      75     124
     126     148     137     176     158     178     158     153     189     164
     144     123     144     144     148     112     130     116     103      74
      82      69      91      79      62      57      67      68      52      78
      67      56      44      63      53      76      54      48      68      71
      84      66      76      55      70      73      82      97      79      80
      85      71      84     107     109     119     121     114     172     169
     154     183     197     197     230     277     315     362     414     511
     527     635     757     893    1010    1074    1158    1074    1034     945
     833     784     755     735     741     782     667     702     546     503
     411     380     296     319     250     228     221     229     212     244
     207     222     175     164     162     164     165     177     145     146
     121     106     118     118     110     137     109      83      87      88
     118      71      93      85      73      81      59      87      74      61
      61      84      77      74      66      68      70      80      79      70
      84      72      79      86      87      82      74      87      77      97
      97     110      92      92     109     112     123     141     152     189
     214     237     275     288     360     441     460     472     404     398
     387     357     287     260     284     323     277     290     277     270
     215     217     188     154     150     123     129     103     132      74
      82     100      85      84     111      77     101      90      89      77
      78      99     109     107     103     144     139     149     176     233
     196     237     255     229     280     273     217     281     214     233
     271     260     247     292     285     312     284     344     372     371
     465     481     543     636     663     781     760     734     695     631
     518     567     573     567     656     627     634     643     594     518
     488     468     410     401     430     484     453     540     592     520
     461     455     426     363     312     354     312     333     312     321
     270     249     241     210     190     175     135     134     109     112
      76     109      90      93      67      74      70      57      72      83
      56      70      56      55      41      45      56      64      41      41
      54      39      42      45      42      43      51      46      48      59
      37      52      29      49      59      59      67      50      43      48
      52      70      74      54      69      58      75      77      57      59
      62      88     106     134     105     110     103     134     143      88
     136     120     103     127     107     114     109     102     103      92
      95      67      78      77      60      83      45      40      40      70
      49      36      65      64      38      49      41      51      45      54
      43      44      36      55      54      54      41      44      58      46
      43      52      63      52      26      72      46      57      60      65
      34      54      59      68      51      50      60      57      68      53
      54      65      58      52      54      76      47      57      65      41
      57      73      58      66      61      51      39      53      55      45
      45      62      48      64      59      62      55      46      59      52
      68      68      81      78      50      92      87      78      83     121
      93     131     166     187     183     221     191     255     270     239
     198     199     202     149     164     190     151     166     181     202
     159     161     166     151     165     133     146     124     104     135
     167     148     186     154     207     232     274     272     275     310
     339     323     309     294     228     228     189     194     222     234
     188     197     193     152     162     135     154     119      98      71
      80      80      57      87      75      65      47      70      45      61
      68      60      58      39      48      50      41      34      53      74
      57      40      39      42      50      29      54      29      42      53
      54      50      45      61      75      71      52      49      58      61
      77      64      85      85      98     103     126     120      84     109
      96      82      97      74      66     115      89      99     105      77
      87      90      80     110      82      86      73     110      79      94
      84     100      79      83      71      65      68      60      84      64
      85     100      64      86      62      97      52      49      47      35
      52      51      43      42      58      57      47      43      37      40
      54      47      54      60      51      55      56      59      56      41
      75      68      65      54      83      81      85      66      95      67
      98     123     111     146     122     147     161     169     214     255
     307     306     360     389     363     371     352     308     290     247
     231     245     269     269     234     255     240     256     181     169
     156     149     156     121      97     120      97     106      97     100
      75      89      77      77      93      77      97     101     118     141
     131     116     152     175     165     202     217     216     236     221
     235     187     179     150     154     173     131     138     163     176
     164     161     166     149     132     102     137     108     141     127
     106     129     120      93     100      59      58     110      67      74
      65      63      51      76      73      54      55      67      60      69
      62      35      38      41      47      51      35      46      53      29
      40      47      43      50      36      44      35      30      34      39
      37      43      34      30      46      38      40      42      41      41
      44      54      54      55      64      39      71      38      53      64
      54      92      79      65      75      79      81     117     106     127
     132     141     187     177     181     209     213     230     228     252
     215     286     278     311     322     350     343     318     314     276
     279     273     250     218     201     207     193     219     197     202
     178     148     122     143      97     110      92      90     109      77
      55      55      65      51      49      56      52      57      45      33
      31      51      41      52      31      50      48      46      37      37
      42      48      53      46      35      26      51      67      30      59
      23      31      38      38      48      29      35      43      36      30
      50      42      57      34      43      58      49      41      46      53
      29      49      49      43      24      55      53      38      29      47
      35      56      37      46      41      25      40      44      43      49
      38      22      32      32      34      38      19      21      38      27
      38      40      31      38      44      29      25      32      28      39
      38      37      45      21      31      28      51      33      41      25
      25      48      31      32      42      20      41      42      46      52
      35      31      51      50      40      28      39      50      43      52
      55      69      70      65     104      87      73      82     102      81
      93      70      55      55      50      71      64      53      52      45
      83      55      83      68      65      71      56      44      30      61
      43      68      53      41      33      41      41      41      42      47
      38      31      31      46      24      40      45      53      35      34
      39      42      44      30      34      73      41      47      48      56
      63      65      73      62      81      87      98     121     125     130
     167     150     149     155     160     172     126     142     145      97
     113     128     134     139     144     138     140     171     141     163
     151     129     156     132     151     137     119     129     109      99
      87      75      69      89      78      92      86      94      94      87
      92      79      80      64      56      53      61      68      37      48
      49      62      55      46      65      43      54      84      71      54
      79      59      41      36      61      41      44      55      33      59
      41      55      38      35      43      40      43      51      49      31
      36      62      47      75      59      40      69      65      65      73
      69      76      53      54      61      41      48      52      51      64
      45      52      50      72      39      44      29      43      47      51
      31      49      40      42      41      33      34      37      47      51
      32      47      56      40      41      55      55      47      64      60
      81     100      94      80      57      61      61      60      62      56
      60      44      45      57      42      44      58      62      48      55
      48      41      62      56      45      44      56      34      44      43
      24      23      42      44      43      34      39      46      48      59
      67      56      64      77      56      78      47      59      61      63
      51      58      59      61      42      49      48      42      47      76
      56      61      41      47      44      62      31      36      48      30
      29      50      39      32      52      40      48      35      49      34
      51      47      29      35      33      60      37      49      57      54
      60      67      77      69     103      94      86      88      94     105
      80     102      83      73      57      48      64      72      86      59
      71      62      68      95      54      75      63      40      45      47
      58      47      33      28      39      30      41      44      38      35
      50      44      40      18      49      34      46      29      43      34
      36      44      46      43      41      39      32      48      33      56
      54      39      44      41      62      66      56      59      54      46
      43      55      75      56      46      54      67      43      78      60
      73      76      55      72      81     107      82      97     101     107
     100     142     162     162     188     172     160     162     119     147
     127     116      87     112     105     108     120     136     103      98
      90      98      96      96      76      76      71      83      68      54
      68      58      40      56      67      58      35      32      61      49
      57      42      48      45      48      44      34      33      35      63
      48      34      36      51      48      36      42      47      51      41
      38      68      62      56      48      73      70      83      69      69
     100      76      72      94     111     131     147     144     135     148
     143     125     138     129     151     134     109      91      84     101
      79      95      83     125     104     115      97     102      67      99
      75      97      52      70      63      62      45      56      49      44
      88      68      73      51      54      57      57      53      47      64
      46      51      71      79      72      62      66      67      78      72
      89      80      95     113     127     132     176     177     182     188
     214     261     255     279     278     277     282     265     236     199
     200     168     181     179     200     201     180     207     225     238
     188     215     229     205     201     172     171     154     152     179
     116     135     122     113      97      89      93     101     108     101
     106      93      88      90      70     123      81      58      73      78
      74      78      50      48      55      37      53      49      49      19
      39      66      35      46      53      50      57      58      37      69
      46      50      49      65      61      55      52      59      63      78
      65      84      72      87      94     116      99     120     125     148
     141     147     177     171     161     124     123     107     132     120
     112     138      97     113     104      95     150     123     111     100
     115      98     115      91     103      87      82      63      71      64
      61      75      80      83      66      70      91      79      96      69
     102      97     108     129     131     123     106     136     132     111
     114     117     142     104      91      88     108     103     117     101
      97     115     122     109     126     113     121     134     112     100
     103      96      73      82      89      74      70      77      56      76
      70      53      71      57      49      47      54      64      56      59
      63      67      52      76      60      46      37      55      54      34
      37      49      36      35      22      40      31      46      32      46
      64      29      38      33      31      47      50      40      54      44
      30      28      34      34      20      40      31      28      30      27
      24      30      43      31      34      35      33      31      35      39
      32      34      39      35      39      20      37      43      28      32
      27      30      42      26      23      38      41      27      37      36
      26      39      33      40      32      44      30      28      39      39
      29      35      33      23      34      30      50      35      35      31
      30      35      34      32      21      34      22      22      39      38
      23      37      26      26      27      47      29      35      29      42
      20      32      18      30      32      21      36      27      29      49
      18      51      32      34      24      42      35      35      28      18
      35      28      38      26      33      27      31      30      34      42
      19      41      32      34      26      35      48      41      33      35
      29      38      27      46      22      33      40      32      39      32
      17      45      44      26      34      41      31      33      30      45
      21      39      29      28      28      13      25      42      32      39
      35      44      35      39      55      41      44      43      25      32
      41      33      35      44      37      35      33      19      39      35
      26      43      28      34      34      45      41      42      45      49
      44      48      40      41      33      57      59      41      58      57
      61      61      61      35      52      63      60      89      67      85
      92      81      95      87      77      65      90      84      52      67
      74      45      46      49      75      59      68      70      57      77
      64      59      68      59      48      36      66      64      81      52
      46      48      47      51      66      32      43      51      70      36
      51      39      50      63      70      49      64      79      79      89
      99      96      94     132     141     151     117     127     133     128
      97     138     121     115     141     111     132     110      98     116
     113     109     108     105     129     131     127     156     114     117
      98     126     149      83     119      95     131      83     100      86
      90      77      92      61      90      95     102      87      79      87
      43      63      72      77      69      72      63      66      91      46
      38      64      57      71      42      70      67      39      51      43
      38      95      83      42      48      56      76      42      46      70
      73      77      69      85      86      98      97     101      61     100
     107     153     156     179     164     187     186     195     189     171
     181     176     148     162     131     132     109     142     125     117
     122     127     129     147     115     110     115     152     146     123
     110     123      82     109      96      82     103     102      89      95
     104      81      85      98      94     111      91      89      90      84
     117     102     122     130     132     138     131     125     106      97
     102     115      81      81     106      78     108      67      86      96
     111     106      82      91      91      96      86     103      98     112
     108     103     107      92      92     119     145     132      98      95
     108     127      83      92      85      83      76      58      85      79
      70      66      62      75      67      75      82      75      78      82
      61      82      90      69      83      67      72      93      85      60
      88      57      49      69      67      99      52      76      98      71
      67      65      81      83      72      86      82      93      60      66
      59      72      54      71      53      61      71      71      75      62
      70      76      84      72      60      65      78      87      72      75
      61      83      69      65      95      88      76     125      94     123
      83     121      90     115     115     162     124     149     161     155
     150     131     161     159     122     132     150     108      99     105
     102     134     105     105      97      90      90      90     122      91
     131     109     121     117     116      97      83     115     105     110
      85      95      81      86      85     102      74      77      81      61
      56      80      53      57      58      61      57      52      66      73
      68      62      42      52      97      47      69      67      65      42
      71      42      52      33      57      46      25      58      44      35
      38      33      28      52      35      55      49      41      38      40
      47      61      52      53      50      57      54      35      48      46
      25      37      56      48      53      43      55      64      45      61
      50      72      57      82      75      63      54      74      82     104
      76      61      91      76      98      95      96      99     103     123
      97      98     134     115      99     104     110     109     111     134
     142     140     173     176     187     211     222     222     254     233
     321     206     278     253     236     241     209     192     215     201
     189     188     189     165     189     178     156     153     178     167
     196     157     183     174     182     155     159     152     159     166
     123     140     137     118     136     103     119     112      93      85
      90     121      77      83      95      88      74      71      67      69
      74      73      85      85      86      78      85      96      72      84
      89      85      66      63      81      89      84      53      94     110
     107     135     117     142     141     142     164     211     161     201
     191     227     238     229     221     241     236     199     175     172
     181     157     152     136     125     107     117     112     139     174
     139     138     145     170     158     136     179     159     152     148
     131     144     122     115      87      94      99     107      89      62
      96     107      72      81      75      82      77      68      90      67
      83      83      69      94      90      95     101     100      99     106
     102      97     124     112     101     108      84      90     103      84
      86      74      80      71      81     110      92      83      96      75
      78      76      81     102      77     106      96      93     101     103
     107     109     188     133     145     189     167     153     164     162
     185     173     148     165     144     148     127     137     115     131
     121     120     132     119     112     105     129     130     114     114
     100     121     109     121     119     140      98     133      92      89
     110     108     100     111     102      58      86      98      84      82
      96      79      93      84      82      79      90      88      84      58
      65      63      87      93      96      90      87      94     132      95
     105     140      91     129     133     143     142     167     202     201
     210     206     263     205     272     201     196     225     196     194
     175     172     163     155     162     132     121     170     123     156
     156     171     149     187     180     171     211     182     196     197
