BETA SI3N4 40MA 4SEC STEP               7/19/1990   8: 6: 0                     
BANK 1      6500     650 CONST    1000.00 2.00                                  
      58      47      72      58      57      72      59      58      61      60
      56      51      56      55      52      65      50      53      65      58
      44      51      31      58      37      45      48      50      44      47
      55      46      49      52      63      29      61      44      46      56
      44      57      50      48      51      38      59      54      57      50
      46      75      47      61      48      48      61      65      34      43
      45      47      41      44      44      62      51      49      44      53
      26      64      61      66      43      33      45      60      59      55
      47      40      51      51      58      63      60      41      49      44
      54      51      37      56      49      45      61      39      57      38
      49      46      45      46      38      60      35      55      56      67
      53      51      41      59      49      51      54      49      43      36
      43      36      45      55      38      45      31      56      46      47
      49      51      50      53      52      45      60      83      62      66
      63      83      62      63      81      93      94      76     108      73
      94      63      87      77      81      89      71      88      85      68
      89     109      87     133     160     175     238     280     456     666
     950    1464    2072    3230    4894    6698    6835    4693    2536     935
     372     262     149     140     121     102      90      80      73      83
      67      51      58      76      71      52      78      66      46      49
      44      40      47      38      29      40      38      38      48      45
      36      36      29      43      35      33      32      35      31      54
      44      24      23      40      39      33      29      36      43      44
      38      50      38      47      25      32      31      37      45      36
      31      38      34      33      41      40      30      40      26      60
      25      27      26      29      46      54      36      31      29      38
      37      33      25      39      44      37      54      25      30      29
      37      29      33      31      34      25      52      30      43      31
      30      31      28      31      35      33      35      29      33      46
      29      25      35      23      20      45      23      32      22      32
      27      36      20      17      34      33      27      48      44      30
      31      32      31      34      23      35      31      27      27      23
      36      39      23      43      36      33      37      30      39      46
      31      38      19      20      39      34      25      26      25      33
      34      28      33      25      34      29      35      33      31      39
      20      38      36      31      23      32      29      36      29      37
      22      29      20      36      24      32      43      23      26      26
      34      40      31      37      41      26      27      52      32      23
      23      30      20      31      37      43      32      25      31      29
      32      23      19      26      40      35      33      29      34      33
      15      33      39      22      41      19      29      46      41      35
      22      20      30      29      33      40      20      18      30      28
      27      27      23      35      34      34      28      26      47      34
      32      36      27      20      30      30      25      17      30      38
      27      38      16      32      29      16      24      30      35      15
      39      28      28      28      28      31      17      17      35      37
      19      28      34      39      34      20      36      25      30      17
      20      32      24      24      24      32      31      15      24      26
      18      22      19      20      32      31      32      23      20      26
      13      16      14      26      34      23      32      32      22      20
      16      31      36      36      25      20      28      14      25      19
      36      23      16      22      35      39      20      30      23      22
      24      31      24      18      24      24      31      28      20      35
      38      83      62      97      82      80      69      56      30      20
      29      28      20      29      34      30      18      33      20      35
      24      26      13      15      19      20      38      26      28      28
      25      22      29      13      39      23      25      33      19      25
      20      16      32      34      17      20      26      36      24      35
      19      31      25      25      37      25      20      27      22      29
      17      29      31      28      30      34      16      34      26      41
      13      22      39      29      33      26      31      29      33      30
      37      32      36      18      36      26      29      39      32      67
      53      56      81      64      55      67      47      28      53      49
      45      49      35      47      41      44      32      35      37      28
      45      46      47      39      43      59      53      74      58      72
      73      57      59      61      56      38      60      57      47      77
      51      81      93     135     172     252     410     612     852    1537
    2437    3828    5353    5489    3622    2909    2418    1184     454     204
     129     111      97      75      82      76      72      64      59      63
      52      64      47      52      33      41      55      46      36      33
      34      28      39      35      25      35      34      44      35      34
      40      35      27      54      32      20      29      41      38      46
      41      43      46      33      41      33      41      34      64      50
      49      34      26      44      32      23      18      40      29      20
      19      40      15      17      24      35      25      25      29      29
      26      20      33      20      28      39      24      31      23      20
      33      28      39      22      13      39      25      32      20      30
      32      20      24      38      28      38      34      33      39      28
      43      41      49      38      20      47      41      24      43      36
      38      50      57      51      60      60      77      98      89     119
      97      79      62      46      49      57      41      70      64      75
      68      55      62      50      50      53      38      71      70      60
      67      59      70      68      83      73      41      83      78     111
     115      83      68      89      97      66      67      87      83      90
      93     130     121     158     187     197     237     358     483     696
    1024    1559    2562    4130    6912   10446   14317   14072    9390    7466
    7294    4767    1876     843     506     355     291     214     167     167
     162     125      91     131      88     115     107     102      86      85
      74      77      61      73      71      77      72      63      64      68
      50      53      65      48      49      61      59      72      41      60
      59      50      55      38      43      49      40      41      33      39
      30      36      38      41      41      46      41      41      48      20
      31      39      47      35      29      32      26      37      13      40
      38      48      31      31      29      23      40      31      35      30
      20      33      37      20      30      45      19      34      24      16
      40      28      18      25      34      39      18      31      39      31
      25      25      25      22      36      25      29      20      34      29
      22      40      20      20      29      14      22      32      32      13
      24      32      34      35      38      39      56      36      50      53
      40      26      50      49      31      24      30      27      31      31
      32      22      36      24      20      15      20      19      22      22
      20      20      18      20      36      26      24      25      33      26
      40      20      41      30      19      32      33      33      15      25
      28      37      24      27      36      29      26      24      20      32
      37      19      22      23      22      33      27      31      43      46
      44      45      96      81      71      59      41      48      69      44
      36      40      35      34      24      31      34      31      35      31
      29      49      40      35      40      46      40      40      34      41
      41      41      39      26      22      27      38      26      34      26
      34      20      39      32      50      41      45      45      51      64
      87     103      97      88     101      71     103      77      79      79
      58      44      69      48      75      60      48      52      53      46
      46      46      32      53      37      38      53      56      37      31
      47      45      28      35      40      46      41      43      48      39
      33      32      37      47      67      51      53      41      51      59
      44      55      41      41      59      38      45      36      52      38
      48      60      52      65      47      50      50      65      75      75
      64      65      70      90     105     116     172     239     291     425
     540     820    1201    2027    3158    4860    6511    6810    4955    3352
    3357    3387    2557    1129     502     330     211     186     140     115
      89      93      88      91      63      58      81      62      92      66
      74      89      66      68      66      66      57      61      68      63
      41      55      70      87      69      63      86     101     141     140
     131     112     120      96      88      69      63      71      79      86
      78      56      65      64      54      50      53      67      63      63
      48      48      45      58      60      37      54      60      83      72
      55      66      53      53      56      74      62      66     117     110
     122     120      83     105      82     117      86      78      57      73
      55      91      75      87      78      67      73     101      94      95
     108     128     136     169     202     254     295     404     611     755
    1119    1660    2675    4134    6452    9835   12099   10906    6734    5192
    5841    5962    4165    1857     738     475     332     269     194     174
     204     152     113     108      88      81     104     103      89      72
      73      83      78      73      79      70      68      58      63      81
      64      48      75      67      62      44      57      51      40      54
      59      48      56      54      51      50      38      45      51      41
      33      35      33      36      54      46      54      56      50      55
      46      68      65      48      40      54      41      57      38      33
      48      36      40      40      33      39      20      39      45      38
      22      46      40      41      44      29      36      24      35      27
      37      48      32      32      28      28      33      29      28      30
      30      19      27      33      20      32      39      29      32      23
      26      24      27      44      39      27      30      35      31      43
      29      30      31      31      25      26      36      51      35      33
      38      52      67      55      83     110     162     211     271     409
     570     710     622     450     333     278     362     312     193     102
      53      50      31      41      43      30      39      34      40      47
      38      32      25      28      32      27      35      51      29      20
      37      37      53      48      34      53      26      34      20      35
      33      35      18      31      27      24      23      24      25      31
      36      46      24      25      27      20      20      29      47      35
      37      41      33      22      23      15      30      40      51      34
      36      27      44      28      38      29      32      37      36      24
      48      35      35      18      34      38      30      32      30      39
      37      35      29      41      41      31      38      41      49      34
      58      67     105     111     183     234     320     478     527     396
     250     219     312     349     350     285     291     353     505     733
    1024    1569    2182    2587    2048    1167     953    1099    1323    1161
     625     303     174     140      83      78      75      60      48      53
      57      32      39      54      43      38      51      55      47      48
      41      37      51      38      46      20      34      33      27      34
      22      33      28      19      30      18      30      35      31      25
      27      34      40      36      32      28      22      24      19      30
      24      17      31      25      37      26      40      45      29      16
      37      27      30      25      28      50      33      32      23      14
      29      27      33      26      27      36      31      29      30      37
      20      20      44      34      29      29      18      30      17      31
      22      29      31      40      27      45      45      60      47      38
      44      43      37      43      39      45      22      28      24      25
      33      27      37      31      32      30      26      24      34      54
      35      28      30      32      23      29      24      24      36      20
      22      36      22      36      25      29      20      28      27      19
      23      34      40      27      29      31      30      26      24      39
      15      31      29      26      38      39      25      35      27      27
      20      36      31      41      44      22      38      25      58      23
      27      25      18      30      34      10      20      23      25      20
      20      28      25      30      24      25      26      33      20      38
      20      29      31      26      31      19      45      32      28      35
      33      34      20      36      44      38      35      30      29      35
      34      23      41      19      28      43      13      26      18      28
      20      29      32      20      32      20      28      26      30      27
      26      26      20      30      23      24      16      25      16      23
      28      28      31      25      38      20      29      19      20      26
      27      38      17      19      22      26      27      37      33      29
      37      24      33      26      33      20      36      24      29      24
      20      31      36      26      14      23      33      29      24      24
      26      27      20      32      32      24      17      28      30      32
      33      28      27      35      20      33      37      40      32      37
      47      60      56      30      41      78      83     104     147     220
     286     419     574     796     896     610     392     316     348     429
     496     403     284     185     239     277     366     428     420     283
     174     141     200     237     230     155     114      66      55      44
      37      43      41      40      29      38      48      34      30      30
      35      29      36      24      41      26      23      34      20      35
      29      37      41      41      17      44      41      30      29      16
      38      33      39      41      34      37      35      30      41      20
      24      32      36      28      34      36      23      19      31      26
      31      33      31      36      41      33      41      49      50      28
      40      46      39      37      24      50      75      73      91      87
     138     182     225     346     465     664     944    1231    1409    1193
     639     431     458     566     674     702     457     207     121      83
      74      73      37      63      47      30      49      47      30      40
      41      32      40      34      32      41      43      35      47      30
      36      55      41      46      32      37      29      32      46      35
      34      35      28      23      38      34      41      20      35      45
      32      27      41      31      32      20      27      33      36      40
      37      40      20      25      32      32      20      23      30      37
      33      39      36      32      34      26      46      32      27      34
      31      31      33      56      50      61      52      43      44      45
      49      53      75      54      69      87      83      72      85     111
     133     137     187     221     325     425     612     923    1283    1888
    2702    3447    3437    2441    1392    1119    1227    1518    1816    1646
    1189     553     276     201     155      97      98      86      74      66
      72      48      54      44      43      46      36      38      41      32
      48      31      44      31      47      43      32      37      45      31
      55      49      36      48      43      36      41      24      37      27
      34      23      41      22      38      30      34      41      49      41
      27      36      40      25      25      23      28      26      28      23
      32      37      41      25      38      37      33      29      37      26
      31      23      23      28      27      18      36      23      25      34
      28      26      23      25      31      25      20      29      31      24
      33      20      20      40      40      45      33      34      31      29
      38      19      39      27      39      34      22      25      18      37
      16      25      35      20      25      22      29      31      20      37
      25      23      14      22      20      24      30      35      27      27
      26      32      16      22      30      29      18      33      35      24
      32      29      26      39      29      38      30      65      32      28
      23      27      26      30      26      12      19      27      30      32
      33      29      24      31      24      25      18      17      16      28
      22      23      23      23      36      27      27      25      24      26
      27      29      20      31      22      19      20      28      33      22
      27      24      25      25      28      25      29      19      33      28
      20      24      19      22      38      16      28      24      23      33
      20      33      27      22      26      17      37      34      40      22
      18      25      16      28      26      12      20      28      29      26
      27      43      31      35      31      39      33      29      25      15
      24      30      25      20      29      22      24      30      23      33
      19      24      27      30      30      30      34      39      36      47
      36      35      60      47      35      56      65      61      67      82
     112     124     169     206     320     466     591     878    1003    1092
     745     469     361     297     398     445     588     530     375     189
     108      86      80      77      53      44      44      46      34      35
      44      38      45      39      29      20      40      26      43      48
      28      46      20      26      29      47      28      28      23      20
      24      28      29      27      25      25      36      20      35      41
      22      20      19      27      18      43      41      26      35      31
      30      24      32      31      33      29      29      30      38      33
      22      37      38      37      25      34      36      38      45      55
      56      57      82      79     102     131     180     234     346     472
     513     422     359     218     161     156     189     220     279     269
     184      98      63      62      43      36      45      44      27      28
      34      28      49      36      23      43      24      33      37      37
      25      24      26      37      33      27      28      32      31      23
      30      28      18      23      35      34      43      26      29      32
      29      48      29      36      32      47      26      41      32      33
      33      43      52      70      72      68      64      86      90      94
     129     183     265     329     509     661     944    1333    1628    1775
    1327     766     471     425     470     612     744     833     771     510
     258     142      77      90      74      66      59      53      37      52
      54      50      32      34      31      44      34      38      28      37
      30      24      20      32      28      30      44      33      35      35
      43      36      12      35      37      43      25      35      34      41
      29      34      35      39      33      45      37      38      44      47
      50      47      24      36      25      43      43      33      45      30
      38      24      36      31      41      24      41      40      29      29
      36      39      37      36      46      29      40      29      37      32
      41      30      24      34      26      20      32      28      28      34
      41      33      28      46      32      34      38      25      25      32
      30      41      34      40      38      43      37      41      49      53
      58      63      58      73      87     132     174     212     297     384
     592     736     765     723     426     300     227     252     277     306
     377     441     377     235     136      77      53      68      60      81
      48      58      52      41      46      53      46      45      48      50
      61      51      63      62      70      69      79     114     167     248
     285     382     570     736     810     871     595     369     278     244
     288     378     428     529     541     507     333     248     103     114
      83      78      98     108     124      96      96      59      61      54
      44      41      26      30      27      32      50      30      27      34
      20      49      30      31      46      47      45      58      66      64
      69      50      44      36      30      49      38      36      50      41
      40      38      36      39      36      28      45      27      33      30
      28      29      43      31      26      33      39      32      36      25
      33      29      43      30      26      25      40      43      30      34
      34      43      32      26      44      35      40      26      27      36
      32      36      41      45      44      59      51      31      41      36
      32      34      30      34      35      43      43      26      30      20
      38      26      29      27      33      38      34      19      39      28
      46      31      31      40      35      29      29      35      30      36
      28      31      24      27      35      33      38      36      22      29
      22      34      34      33      41      33      31      34      27      32
      25      32      23      29      31      38      28      29      32      38
      23      35      28      41      20      20      43      20      40      23
      37      33      36      26      32      50      32      27      33      35
      40      34      25      33      28      39      34      29      50      34
      28      36      45      41      39      44      38      24      48      29
      60      45      46      65      69      92      87     114     133     153
      98      95      79      77      71      61      81      92      83     100
      89      67      70      61      67      55      41      49      78      70
      45      39      41      46      64      40      54      70      74      71
      81     102      87     136     105     101     107     131     140     209
     256     334     437     581     745     972    1372    1923    2528    3210
    3577    3445    2246    1351     895     856     911    1123    1433    1614
    1938    1691    1026     580     361     229     176     148     123     109
     129     113     131      96     108     110     159     185     229     258
     371     470     467     420     300     186     159     132     135     174
     182     214     208     245     181     102      82      56      83      39
      46      48      48      45      73      41      56      56      61      43
      52      56      70      77      85      94     113     150     196     220
     339     440     478     557     404     244     153     120     118     158
     189     243     268     291     226     144      87      77      82      34
      55      43      33      43      43      45      50      46      41      26
      31      25      41      38      24      32      41      31      24      36
      58      32      40      38      26      28      34      50      23      35
      30      27      40      35      46      31      24      43      56      40
      43      41      23      29      27      47      51      53      50      56
      53      51      56      50      39      47      47      73      53      75
      68      83      82      99     105     158     169     242     274     355
     563     665     930    1306    1612    1820    1603    1109     632     471
     409     411     451     581     720     820     949     721     484     289
     185     118     102      95      61      64      52      56      53      24
      38      45      48      50      47      22      37      30      53      41
      33      28      30      48      37      31      40      35      40      26
      24      38      25      35      50      37      40      35      41      43
      46      52      36      40      64      78      68      81     132     130
     169     225     304     362     484     660     742     618     442     248
     174     184     187     204     235     276     327     365     337     230
     132      79      99      63      55      56      34      60      60      47
      46      52      56      52      65      51      91      85      95     142
     186     205     263     360     474     571     791     938    1038     838
     564     328     222     246     242     265     318     413     488     548
     463     317     185     130      92      69      62      50      44      47
      52      27      39      38      40      44      28      36      36      57
      66      41      69      59      75      96     101     134      98      78
      77      48      52      40      37      50      60      77      66      75
      61      41      24      30      37      51      36      22      25      39
      22      30      27      24      33      30      38      20      29      23
      17      31      29      44      27      26      20      12      19      24
      23      17      20      27      23      28      31      23      19      20
      24      23      25      34      35      38      28      27      29      30
      29      19      38      15      24      28      29      32      30      22
      25      26      23      22      35      26      24      30      35      16
      35      19      13      24      25      13      25      23      30      25
      33      26      23      19      22      34      25      17      25      28
      22      25      20      20      18      23      25      23      22      24
      33      36      22      26      19      18      15      25      30      20
      28      20      30      25      25      22      26      26      26      25
      25      26      23      20      26      20      32      25      22      14
      20      36      31      36      23      18      17      20      20      33
      24      20      22      30      30      34      26      34      45      32
      35      51      54      73      78      96     123     156     162     120
      90      69      47      44      53      49      61      88      72      78
      86      83      59      29      38      40      29      32      24      20
      28      20      25      25      18      35      25      31      25      20
      18      23      31      25      31      33      27      19      28      20
      22      35      25      29      20      16      31      25      38      22
      24      19      20      20      35      20      32      41      44      44
      46      64      72     102     112     135     173     199     148     141
      65      52      62      54      52      55     100      70     121      85
      94      66      62      44      36      34      28      41      31      28
      33      18      23      15      22      15      22      25      25      30
      20      37      18      11      19      33      22      17      26      23
      20      18      27      16      23      25      33      27      20      13
      19      30      18      19      28      22      32      15      30      17
      22      23      26      15      27      23      23      31      23      18
      14      20      25      22      24      17      24      36      17      27
      22      20      25      25      34      57      40      35      32      17
      18      27       7      30      36      24      27      38      40      43
      20      34      33      32      20      26      28      49      50      33
      57      65      82      79     140     143     164     175     145     103
      65      41      55      50      41      69      74      96      79      89
      75      65      60      30      39      31      23      22      32      24
      34      41      30      33      33      31      29      44      36      39
      41      31      27      36      47      65      73      75      96     125
     125     202     201     308     365     364     335     241     126     109
      83      99      99      97     103     114     154     201     204     170
     138     100      58      50      49      62      52      58      61      80
     101      99     134     176     184     200     210     143     131      81
      60      75      60      70      73      69     110     108     128     122
     106      68      64      45      36      26      23      25      29      27
      34      20      24      28      23      20      20      11      32      24
      28      11      30      24      19      13      18      22      32      20
      22      23      22      18      37      20      24      24      13      20
      31      25      28      17      25      26      20      18      16      23
      18      17      22      24      18      23      18      30      23      23
      20      14      18      18      31      24      33      12      29      14
      33      23      32      13      26      14      19      20      25      20
      20      19      23      27      20      14      20      15      18      10
      16      26      18      16      20      26      23      30      22      10
      26      27      31      27      24      27      23      22      36      24
      28      23      22      20      35      20      25      19      22      26
      27      28      22      18      30      20      11      19      17      22
      14      16      26      18      27      28      22       8      23      29
      20      24      19      30      35      29      22      33      31      28
      30      17      26      22      28      30      28      35      35      20
      26      30      35      17      20      32      24      26      22      36
      31      26      26      22      34      36      28      31      33      20
      48      51      72      76      87     119     166     199     248     360
     395     422     294     208     143     106      87      73      81      94
     121     123     157     172     234     224     197     150      79      52
      52      48      45      44      24      23      26      41      37      19
      30      23      24      28      35      36      37      25      31      20
      17      25      23      33      28      38      29      36      35      22
      28      16      39      39      36      27      44      30      34      53
      41      70      69      99     139     174     183     247     291     308
     274     199     159      79      61      61      71      67      64      98
      87     129     146     162     152     130     102      60      45      34
      43      26      18      26      24      27      28      34      22      34
      36      20      20      28      18      20      26      31      20      31
      17      36      22      20      12      22      16      20      23      20
      12      20      26      34      20      18      25      20      24      19
      16      26      37      10      22      20      20      27      26      20
      30      22      26      19      16      26      20      16      30      17
      26      20      13      16      24      32      24      22      12      24
      20      29      23      20      15      26      20      34      15      25
      27      17      17      18      27      14      19      19      30      20
      19      26      28      36      19      20      16      17      25      14
      26      20      17      20      29      18      19      32      10      18
      32      13      20      24      18      22      29      32      22      17
      25      31      18      22      18      27      27      35      35      36
      41      36      62      58      82      80      90      92      61      51
      35      32      31      31      51      41      43      50      29      44
      52      63      49      79      34      39      44      32      31      25
      41      54      44      38      49      49      51      69      97     105
     130     169     235     304     342     393     490     473     375     250
     181     136     100     101      87      95      95     145     153     191
     227     255     223     226     162     135      77      70      50      47
      43      54      29      27      32      35      31      19      38      33
      25      41      27      17      27      37      28      29      29      23
      25      29      34      20      32      25      19      27      15      22
      22      26      17      30      22      36      22      17      19      20
      22      36      24      20      20      25      20      15      19      22
      30      30      24      34      25      43      24      23      31      34
      26      20      18      19      31      18      17      18      24      26
      18      27      30      16      27      24      24      30      26      16
      29      24      27      17      31      20      17      26      27      23
      20      39      34      40      39      24      41      36      43      34
      45      36      33      69      51      32      56      39      38      48
      52      35      24      28      33      37      43      53      32      48
      47      48      50      45      69      80      59      73      92     136
     150     175     221     308     325     334     286     162     136      80
      65      62      76      68      69      81      92     118     126     155
     179     172     166     116      80      78      51      57      44      35
      24      18      30      24      32      37      37      30      24      34
      31      30      25      33      19      45      33      63      38      28
      53      54      73      77      77      57      54      40      20      31
      38      27      36      33      37      25      33      44      51      56
      41      46      45      39      31      25      28      34      30      23
      26      14      26      33      26      30      25      26      29      28
      23      27      20      33      30      24      36      27      30      35
      25      15      34      29      33      28      37      38      36      36
      23      39      49      49      53      46      55     107     125     130
     190     212     243     240     189     104     107      67      48      52
      33      40      58      49      43      91      80     107     118     131
     103      93      67      57      58      45      33      34      32      33
      32      38      30      18      36      23      28      30      18      20
      32      16      25      33      28      30      31      20      16      24
      34      28      25      28      23      20      43      25      24      32
      23      22      22      25      26      32      34      41      19      30
      27      30      24      29      46      31      25      27      41      16
      33      34      54      65      60      73     104     127     139     197
     222     283     338     304     259     204     124      80      73      62
      67      63      68      73      57      81      86     118     147     182
     176     172     135      76      85      46      34      43      39      34
      29      27      23      24      27      38      17      27      20      35
      26      10      25      37      31      24      31      36      40      23
      33      20      29      30      24      30      11      22      27      32
      20      22      22      20      29      24      13      28      31      32
      32      37      24      28      30      26      25      32      33      24
      19      41      24      16      35      22      29      32      19      38
      22      33      40      26      25      32      35      41      37      34
      29      23      39      44      62      69      56      80     122     123
     188     181     247     282     278     278     222     171     109      81
      77      50      60      50      49      82      68      76     111     107
     121     159     149     177     116     101      85      51      49      41
      55      29      33      44      37      35      32      33      28      37
      30      22      26      22      18      44      30      30      32      23
      34      25      25      39      28      20      26      23      29      25
      32      23      24      14      17      24      26      25      28      26
      20      41      27      13      31      23      28      28      20      38
      18      30      31      24      20      28      26      31      40      20
      28      16      27      20      22      24      26      28      29      40
      27      30      26      24       9      24      19      27      25      18
      35      27      28      30      29      34      39      30      45      22
      23      38      24      33      37      35      41      52      43      49
      52      68      77     105      94      85     156     156     171     167
     129     109      78      46      44      61      52      49      50      48
      52      68      54      78      69     102     108     125     151     155
     135     174     174     258     266     330     406     424     381     291
     226     161     135     109      74      81      64      50      81      97
     100      95     115     141     183     207     233     242     234     152
     128     101      94      72      74      55      52      66      56      61
      72      62      96      97     117     148     176     180     221     202
     230     242     300     375     547     628     775     883     904     782
     535     429     261     188     178     173     169     149     174     151
     176     173     189     234     273     350     420     466     455     405
     281     226     166     123     135     119     116     119     112     113
     124      82     106      64      64      67      37      41      29      44
      33      53      41      34      44      54      43      61      61      50
      58      77      70      44      33      53      30      45      56      51
      65      59      70      65      57      79     110     125     148     187
     187     193     139     122      68      99      57      51      39      55
      51      40      53      44      54      59      82      83     106     112
     109      93     100      69      68      46      48      49      33      35
      29      25      38      36      37      24      39      22      27      30
      29      27      20      39      34      25      32      25      46      36
      45      26      15      33      36      25      41      29      33      20
      19      36      28      24      34      31      24      28      26      27
      44      36      34      39      22      33      25      23      24      32
      18      20      25      38      39      31      60      40      58      57
      64      64      82      87      87     153     162     190     164     140
     104      76      71      57      41      48      44      37      53      54
      44      58      50      51      71      52      86      81     112      75
      78      64      49      49      30      36      38      40      43      28
      39      57      23      31      36      32      31      29      40      35
      29      33      19      34      34      30      31      34      25      31
      29      36      35      37      37      38      29      28      32      26
      37      24      23      39      30      38      24      26      40      14
      32      18      25      22      10      28      19      35      20      34
      34      48      35      28      25      15      36      17      36      26
      39      22      26      33      33      34      32      37      25      49
      25      51      41      62      47      58      54      67      78      85
     117     122     147     174     162     115     102      65      61      56
      46      56      43      41      51      53      58      50      51      45
      59      95      66      88      90     113      82      81      69      64
      41      45      62      66      48      60      88      74      96     130
     144     190     220     277     328     317     257     229     155     124
      71     101      74      74      52      39      56      61      50      55
      51      83      87     101     110     126     191     185     177     133
     116      87      77      46      61      46      47      41      41      44
      35      44      40      32      40      33      30      28      37      40
      24      19      26      31      53      37      17      40      27      41
      29      39      25      29      33      18      35      34      30      41
      30      44      45      24      37      29      34      35      31      38
      47      33      38      25      38      34      48      44      34      46
      49      59      65      69      83      88     109     122     182     224
     296     265     346     421     376     309     240     179     165     105
      86      79      65      50      61      54      60      41      80      82
      75     107     120     144     161     169     220     200     179     141
     123      86      61      73      70      41      56      43      41      43
      43      43      46      35      43      41      26      33      34      34
      44      30      43      29      48      44      22      32      32      35
      29      34      26      39      38      35      20      31      25      45
      31      43      40      44      41      46      51      40      41      71
      34      47      51      71      77      85     106     110     147     185
     220     262     276     241     180     135     115      97      66      62
      57      63      75      52      47      53      47      34      45      73
      79      75      95     112     141     139     127     141     120     126
     102      78      60      69      55      41      25      50      47      51
      37      30      25      38      41      41      53      31      34      34
      39      40      26      32      54      32      20      43      40      46
      41      27      30      40      34      39      33      35      36      38
      24      36      26      45      37      31      39      44      29      51
      54      32      45      45      54      47      62      73      99     107
     117     153     198     233     299     317     231     220     143     132
     118      85      63      68      40      44      52      46      63      47
      65      49      59      63      78     107      89     102     150     173
     159     134     141      89      92      61      56      52      55      51
      40      36      51      50      31      29      30      38      43      29
      30      34      37      41      38      32      20      30      37      22
      43      31      41      37      33      41      25      34      44      35
      40      32      33      25      31       8      31      25      32      23
      38      33      23      31      40      29      38      40      33      35
      24      26      27      28      41      45      33      35      56      33
      49      31      20      28      26      23      37      41      38      37
      32      38      24      33      24      32      39      29      24      24
      25      30      43      30      29      41      24      39      56      30
      38      31      46      49      38      33      41      39      40      38
      29      35      45      37      46      54      37      25      39      44
      47      60      51      50      54      47      63      57      46      38
      56      43      71      71      73      68      86      97     152     197
     205     241     274     406     471     534     574     638     486     376
     309     269     271     285     276     353     395     456     443     445
     390     329     264     215     172     162     178     171     183     183
     258     279     327     316     316     249     253     218     190     167
     174     194     179     240     238     281     256     244     262     232
     237     257     296     303     382     366     357     274     222     211
     154     115     126      91      76      72      60      91      65      62
      70      54      67      57      68      67      83      91     120     106
     138     151     204     176     141     130      90      80      74      66
      68      66      50      62      34      35      52      40      54      51
      39      47      53      46      40      41      59      24      54      50
      49      49      64      74      89     101     112     147     122     116
      81      66      63      46      46      38      35      40      39      36
      57      44      35      34      37      41      52      43      57      49
      58      59      59      69      68      75      76      78      82      60
      45      51      37      40      34      39      45      47      29      39
      24      23      32      53      44      46      47      36      33      53
      33      41      31      30      24      32      33      39      37      39
      26      31      37      27      34      40      27      44      25      28
      44      43      30      45      33      23      32      30      27      33
      33      44      41      44      39      32      44      43      52      64
      49      57      56      72      78      89     105     111      89      70
      59      74      45      56      32      41      44      37      38      40
      40      40      31      33      43      35      54      38      51      43
      55      72      78      90      73      75      94     112     122     119
     130     110     123     109      95      79      75      73      71      41
      55      47      33      46      40      31      45      29      30      38
      31      44      35      44      34      65      51      57      79      70
      66      65      71      79      59      63      49      52      48      41
      51      46      31      33      51      38      36      34      48      30
      24      38      19      36      46      46      20      41      37      26
      47      24      38      29      31      40      27      28      38      35
      37      28      41      39      23      29      50      35      29      23
      34      32      25      24      45      31      35      37      39      44
      36      27      31      36      28      33      26      24      37      28
      35      33      23      41      31      37      33      26      48      45
      20      40      20      35      44      31      43      37      41      40
      57      30      51      29      35      38      46      28      43      39
      23      36      36      24      33      45      49      48      36      49
      50      49      41      57      50      62      94      62     105     119
     119     141     178     202     232     250     258     187     165     131
      81     105      81      81      52      53      36      43      54      41
      48      35      51      37      35      35      49      64      76      70
      85      85      82     106      96     123     140     115     126     123
      91      94      74      62      61      47      50      47      38      58
      27      38      41      20      23      39      47      39      35      43
      30      45      41      33      40      34      47      45      36      35
      37      47      36      36      46      26      38      38      38      34
      32      29      30      37      43      35      39      26      32      33
      49      26      36      31      30      47      27      29      35      37
      46      20      26      44      51      39      47      48      35      46
      64      49      43      48      45      31      40      55      59      70
      73      63      98     113     123     144     167     150     161     134
     111     104      94      82      83      61      69      53      45      54
      52      55      44      64      47      43      48      35      45      48
      41      63      41      68      33      57      59      86      76      83
      78      96     107      92      92      93      70      73      57      57
      51      36      54      45      37      41      29      43      58      41
      47      41      64      44      25      32      38      50      37      25
      38      36      27      50      32      36      41      30      33      36
      50      41      33      46      36      31      33      46      29      46
      47      51      58      59      73      64      61      78      86     121
      98     146     148     172     188     165     207     147     118     118
      85      86      66      63      65      56      45      62      43      56
      63      45      45      54      58      46      53      51      50      37
      45      71      67      58      69      86      73      99     133     126
     123     126     138      75      72      86      83      75      83      78
      83      83      66      97      96      88      92     131     164     222
     233     241     271     294     312     264     210     220     149     108
     116      98     107      92      65      65      48      59      65      60
      78      67      78      47      51      79      55      40      66      60
      73      58      69      75      69      82     125     114     162     150
     172     138     140     122     122     107      76      63      87      65
      62      82      56      60      68      62      72      90      56      64
      70      76      55      58      83      60      40      53      47      36
      54      41      40      39      40      30      47      52      35      37
      46      43      34      37      33      33      32      27      40      35
      35      52      43      43      49      46      57      44      53      41
      36      54      54      30      49      37      55      47      38      43
      47      53      26      33      31      48      47      31      44      41
      32      25      24      45      31
